# NFW_trunc profile
# Ft = 3, where Ft defines the truncation radius, r_t, i.e. r_t = Ft * r_Delta
# OmegaM = 0.3158, h = 0.6732, OmegaB = 0.0494, n_s = 0.9661, sigma8 = 0.8104
# M = 1.00e+14 [Msun], conc = 4.00, z = 0.50
# All quantities are physical (not comoving)
#
# 1) r [Mpc]
# 2) DeltaSigma(r) [Msun/pc^2], for Delta critical = 200
# 3) DeltaSigma(r) [Msun/pc^2], for Delta mean = 200
# 4) DeltaSigma(r) [Msun/pc^2], for Delta vir
#
          0.012589254117941675             249.0263292265629             179.5081715396334            196.45978022785562
          0.014063754149200566            248.35856125421265            179.13443259062774             196.0210183522055
          0.015710953080792556             247.5716766411847            178.69232441093675            195.50252205680658
          0.017551078047030273            246.64704464060583            178.17066550771483            194.89140114574377
          0.019606725259051487            245.56384859954937            177.55681862531424            194.17313030362106
           0.02190313747986403             244.2990346826865            176.83660729228848             193.3314690211239
          0.024468513998294947            242.82732586295572             175.9942607447249            192.34841770883804
          0.027334356908235616            241.12132155661857            175.01239915667009            191.20422395268906
          0.030535857945393555            239.15170505529045            173.87207300588432             189.8774548069805
           0.03411233063179615            236.88758154829281            172.55287193458128             188.3451524675762
           0.03810769303465792              234.296968491249             171.0331193857471            186.58309127191615
           0.04257100706775288            231.34745673628504            169.29016918895582            184.56615327022803
           0.04755708095775922            228.00705461450343             167.3008187456353            182.26883715704787
           0.05312714227369225            224.24521758819583            165.04185005569872            179.66591064746746
           0.05934958978403472             220.0340529569986            162.49070417148454            176.73320907749098
           0.06630083337415688            215.34967261767622            159.62628648571115            173.44857289492774
           0.07406623233797326            210.17364781267372            156.42988956416815             169.7929039355762
           0.08274114356578992            204.49449960316855            152.88620734780227            165.75130550482754
           0.09243209249979242            198.30913960346157            148.98440027653146            161.31425540478938
           0.10325808123617294            191.62416002901244            144.71915651682275             156.4787457989034
           0.11535204983701992            184.45686334387426            140.09168177308638            151.24931129540806
           0.12886250879646396            176.83592258276934            135.11054121551493            145.63885921270756
           0.14395536270730006            168.80157587714044            129.79227401188203            139.66921592710884
           0.16081594752219316            160.40528361577148            124.16170563326054            133.37131221763858
           0.17965130642645613            151.70881301828726            118.25189659576404             126.7849493318059
           0.20069273226946868            142.78275971988168            112.10368854561366            119.95811543527822
           0.22419860777507383             133.7045645136609            105.76483815467377            112.94585696215495
            0.2504575784079262            124.55612977600151              99.2887633482212            105.80874751639267
            0.2797920968576891            115.42117820991366             92.73296103425494             98.61103379606155
           0.31256238266633735            106.38252117041829             86.15718633691013             91.41856870259471
           0.34917084562166456             97.51941163550907             79.62150620019527             84.29666216444554
            0.3900670272350051             88.90514699816754             73.18435198062596              77.3079874745119
           0.43575312098311625             80.60506101981554             66.90069475777987             70.51067426620403
             0.486790139101217             72.67500642327111            60.820453904894904            63.956699846325705
            0.5438048016536494             65.16038497248815             54.98722608351477             57.69066143006828
            0.6074972324779897             58.09573604147802             49.43739164988346            51.748976967004765
            0.6786495565066142            51.504852471319964             44.19962246831602             46.15952609045546
            0.7581355040383845             45.40135738400117             39.29478313445879            40.941709157051406
            0.8469311398981715            39.789649274063976            34.736189636442894             36.10687417464882
            0.9461268492352516            34.666105318046405            30.530167366909176            31.659040099866786
            1.0569407271427655             30.02042377065399             26.67683477492409            27.595830748853572
            1.1807335365189582            25.836985096629284            23.171029558694475            23.909525915429207
            1.3190254178484833            22.096118922900533            20.003290645663846            20.588134822165575
            1.4735145560951295            18.775182515761067            17.160811335341894            17.616402270367466
            1.6460980339301088            15.849389539554021            14.628288108855767            14.976671693793053
            1.8388951273676009            13.292376252023006            12.388607996555443            12.649554335507808
            2.0542733298713607            11.076550301601737             10.42334688523413            10.614390951034336
            2.2948774245009864             9.173319920451538             8.713090351219607             8.849537822235073
            2.5636619610955385             7.553327578112446             7.237630061391314             7.332551223015531
            2.8639275373051216             6.186795745633473             5.976118887285471             6.040367440143998
             3.199361328991107            5.0440343254277975             4.907272050205752             4.949565471809278
            3.5740823676968687             4.096082148693735             4.009673504736113             4.036756016875547
            3.9926921211833997             3.315392406975014            3.2621952481967744            3.2790799018372363
              4.46033099814449             2.676449268894024              2.64448416180566             2.654748011771573
             4.982741470963222             2.156223521087601             2.137439228131339            2.1435340816192445
             5.566338591639299            1.7344219262646743            1.7236022595090916            1.7271454791263665
             6.218288766802789             1.393534367351057            1.3874117400055317            1.3894330090335836
             6.946597759148919            1.1187175602202362            1.1153059735681008             1.116440087204463
             7.760208995926675            0.8975687674513008            0.8956928789009266            0.8963201740344717
              8.66911339168132            0.7198412625130756            0.7188213800436186            0.7191641298203358
             9.684472033842946            0.5771425545733999            0.5765933226482587            0.5767786722613929
             10.81875323770525            0.4626430910319764            0.4623496645383732            0.4624490308493981
            12.085885653790495           0.37081128898196647           0.37065556216247797            0.3707084489938453
            13.501429307715815           0.29718190105897074            0.2970997063042117           0.29712768669725215
            15.082766672881457           0.23815896557999774           0.23811577795645167            0.2381305082672273
            16.849316122299538           0.19085131087856386           0.19082870308641903           0.19083642637209064
            18.822770380690798           0.15293701921512395            0.1529252206179231           0.15292925651978992
            21.027362904973337           0.12255275472486203           0.12254661264889809           0.12254871588914472
             23.49016546422016           0.09820395119622366           0.09820076032496404            0.0982018539343352
             26.24142057328233            0.0786922339962512           0.07869057908792015           0.07869114668120716
            29.314912862268624           0.06305693552031026            0.0630560784013622           0.06305637254438166
            32.748383942192596           0.05052805716184959          0.050527613738544995           0.05052776598396998
             36.58399586121992            0.0404884855152917           0.04048825632609123           0.04048833504712567
             40.86884884262624          0.032443667660040344           0.03244354929055789          0.032443589960806624
             45.65555966214059            0.0259972864831109          0.025997225386961757          0.025997246384409627
              51.0029077669841          0.020831755973211335          0.020831724454810477           0.02083173528939288
             56.97655707076095          0.016692585122445924          0.016692568869587504          0.016692574457589246
            63.649862287638754          0.013375845071260316           0.01337583669322011          0.013375839574161833
             71.10476970737177          0.010718124619528301          0.010718120302068304           0.01071812178689075
             79.43282347242814          0.008588480571813328          0.008588478347434484          0.008588479112502535
