#             Piccolo C0 - Cosmology             
# +--------+--------+--------+--------+---------+
# |  Om0   |   h    |  Ob0   |   ns   | sigma_8 |
# +--------+--------+--------+--------+---------+
# | 0.3158 | 0.6732 | 0.0494 | 0.9661 |  0.8102 |
# +--------+--------+--------+--------+---------+
#        sigma8(z) = 0.6471 for z = 0.4252 
#    sigma8(z)/sigma8 = 0.7987 | G(z) = 0.7987 
# 
#     k [h/Mpc]              P(k) [(Mpc/h)^3]
1.000000000000000048e-04 2.659773400453540830e+02
1.010000000000000020e-04 2.685450878228372176e+02
1.020099999999999940e-04 2.711375960777441492e+02
1.030301000000000014e-04 2.737551025592657652e+02
1.040604010000000001e-04 2.763978475994861697e+02
1.051010050000000026e-04 2.790660736214035751e+02
1.061520150999999953e-04 2.817600253849195155e+02
1.072135352000000051e-04 2.844799501098341352e+02
1.082856706000000067e-04 2.872260971683587059e+02
1.093685272999999968e-04 2.899987182081107449e+02
1.104622125000000052e-04 2.927980673366060955e+02
1.115668347000000048e-04 2.956244011827567419e+02
1.126825029999999989e-04 2.984779790813630029e+02
1.138093279999999980e-04 3.013590625811336849e+02
1.149474212999999955e-04 3.042679155061839538e+02
1.160968954999999940e-04 3.072048040175323536e+02
1.172578644999999937e-04 3.101699972280758288e+02
1.184304430999999995e-04 3.131637667106096501e+02
1.196147475999999966e-04 3.161863867438176499e+02
1.208108950000000054e-04 3.192381338202920347e+02
1.220190039999999960e-04 3.223192872615086344e+02
1.232391939999999875e-04 3.254301290333338557e+02
1.244715860000000112e-04 3.285709436230304163e+02
1.257163018000000034e-04 3.317420184082413357e+02
1.269734649000000127e-04 3.349436434110010055e+02
1.282431994999999874e-04 3.381761114207292849e+02
1.295256314999999880e-04 3.414397178097397045e+02
1.308208877999999901e-04 3.447347609022238544e+02
1.321290967000000123e-04 3.480615417897591328e+02
1.334503876999999978e-04 3.514203644543038649e+02
1.347848915000000045e-04 3.548115357066993738e+02
1.361327404000000079e-04 3.582353651866706628e+02
1.374940678999999894e-04 3.616921654243230932e+02
1.388690085000000081e-04 3.651822516556506457e+02
1.402576986000000014e-04 3.687059423760126720e+02
1.416602756000000110e-04 3.722635593401341225e+02
1.430768783999999917e-04 3.758554272546180641e+02
1.445076471000000123e-04 3.794818733474638179e+02
1.459527235999999884e-04 3.831432279215433709e+02
1.474122508999999991e-04 3.868398247235870713e+02
1.488863734000000041e-04 3.905720006981931647e+02
1.503752370999999891e-04 3.943400959878277376e+02
1.518789894999999883e-04 3.981444536253380306e+02
1.533977793999999925e-04 4.019854199644339587e+02
1.549317571999999916e-04 4.058633444336986713e+02
1.564810746999999917e-04 4.097785797825784471e+02
1.580458855000000079e-04 4.137314821428795995e+02
1.596263443000000019e-04 4.177224109672720260e+02
1.612226078000000091e-04 4.217517291522830192e+02
1.628348338000000116e-04 4.258198026078157454e+02
1.644631821999999882e-04 4.299270008106263390e+02
1.661078140000000006e-04 4.340736970503133989e+02
1.677688920999999885e-04 4.382602678758410661e+02
1.694465811000000046e-04 4.424870932185341985e+02
1.711410469000000038e-04 4.467545562075852672e+02
1.728524573000000096e-04 4.510630437850300041e+02
1.745809819000000002e-04 4.554129468287410987e+02
1.763267916999999971e-04 4.598046595989522416e+02
1.780900596999999866e-04 4.642385799227496364e+02
1.798709602999999982e-04 4.687151092555700416e+02
1.816696698999999994e-04 4.732346526812002594e+02
1.834863665999999886e-04 4.777976190962698411e+02
1.853212301999999955e-04 4.824044212717486175e+02
1.871744424999999875e-04 4.870554758529465857e+02
1.890461869000000124e-04 4.917512034210112120e+02
1.909366488000000016e-04 4.964920278164553338e+02
1.928460152999999990e-04 5.012783771231171386e+02
1.947744755000000133e-04 5.061106834836671737e+02
1.967222202000000030e-04 5.109893830996082897e+02
1.986894424000000103e-04 5.159149158622915365e+02
2.006763367999999997e-04 5.208877257833975136e+02
2.026831001999999872e-04 5.259082608104446308e+02
2.047099311999999978e-04 5.309769730112815296e+02
2.067570304999999994e-04 5.360943187585787655e+02
2.088246008000000059e-04 5.412607583608452160e+02
2.109128467999999963e-04 5.464767564929086348e+02
2.130219753000000009e-04 5.517427820114251062e+02
2.151521950999999875e-04 5.570593080163753257e+02
2.173037169999999976e-04 5.624268119740595466e+02
2.194767542000000031e-04 5.678457757170983768e+02
2.216715217000000124e-04 5.733166853214371486e+02
2.238882368999999917e-04 5.788400310448485016e+02
2.261271193000000124e-04 5.844163076344200363e+02
2.283883905000000077e-04 5.900460143880516171e+02
2.306722743999999991e-04 5.957296552774502061e+02
2.329789971000000102e-04 6.014677387021398545e+02
2.353087870999999952e-04 6.072607779199448714e+02
2.376618749999999869e-04 6.131092904320134949e+02
2.400384936999999978e-04 6.190137983518045530e+02
2.424388787000000085e-04 6.249748279746037269e+02
2.448632675000000187e-04 6.309929112534637170e+02
2.473119001000000181e-04 6.370685844462592513e+02
2.497850190999999914e-04 6.432023899606115265e+02
2.522828692999999796e-04 6.493948714340911010e+02
2.548056980000000136e-04 6.556465811139129300e+02
2.573537550000000061e-04 6.619580743221657713e+02
2.599272926000000222e-04 6.683299113007343522e+02
2.625265654999999767e-04 6.747626590562254023e+02
2.651518311000000011e-04 6.812568864401688415e+02
2.678033493999999780e-04 6.878131696837904201e+02
2.704813828999999971e-04 6.944320893231381433e+02
2.731861967999999852e-04 7.011142320440062576e+02
2.759180586999999897e-04 7.078601876070623575e+02
2.786772393000000242e-04 7.146705519227201648e+02
2.814640117000000055e-04 7.215459276661140393e+02
2.842786517999999914e-04 7.284869212022266538e+02
2.871214383999999955e-04 7.354941438158373330e+02
2.899926526999999890e-04 7.425682135564463806e+02
2.928925793000000059e-04 7.497097515484272208e+02
2.958215051000000055e-04 7.569193875257980153e+02
2.987797201000000217e-04 7.641977542974501603e+02
3.017675173000000221e-04 7.715454914369960306e+02
3.047851925000000066e-04 7.789632422078955187e+02
3.078330443999999851e-04 7.864516578682786303e+02
3.109113749000000197e-04 7.940113933661235706e+02
3.140204886000000101e-04 8.016431097991545585e+02
3.171606935000000267e-04 8.093474756447910750e+02
3.203323004000000092e-04 8.171251624553261763e+02
3.235356233999999820e-04 8.249768497777226912e+02
3.267709796999999894e-04 8.329032208487917615e+02
3.300386895000000098e-04 8.409049650550899742e+02
3.333390763999999752e-04 8.489827803928195635e+02
3.366724671000000005e-04 8.571373685480299400e+02
3.400391918000000239e-04 8.653694367415423585e+02
3.434395837000000259e-04 8.736796977289496908e+02
3.468739794999999731e-04 8.820688728754897738e+02
3.503427193000000026e-04 8.905376884661970962e+02
3.538461465000000109e-04 8.990868757059033669e+02
3.573846079999999886e-04 9.077171731791358980e+02
3.609584540999999890e-04 9.164293243902188806e+02
3.645680385999999968e-04 9.252240808381466195e+02
3.682137189999999932e-04 9.341021995566853775e+02
3.718958562000000212e-04 9.430644431143726933e+02
3.756148148000000120e-04 9.521115814594418225e+02
3.793709628999999907e-04 9.612443906898722616e+02
3.831646724999999889e-04 9.704636530533896348e+02
3.869963192999999798e-04 9.797701575624407724e+02
3.908662823999999991e-04 9.891646981492692703e+02
3.947749452999999779e-04 9.986480767407889516e+02
3.987226947000000084e-04 1.008221102643609242e+03
4.027099217000000239e-04 1.017884590084136335e+03
4.067370208999999980e-04 1.027639360668472136e+03
4.108043911000000071e-04 1.037486243382414386e+03
4.149124350000000247e-04 1.047426073361506496e+03
4.190615593999999868e-04 1.057459690046114474e+03
4.232521749999999978e-04 1.067587943331173392e+03
4.274846966999999937e-04 1.077811688646389484e+03
4.317595436999999907e-04 1.088131788186189851e+03
4.360771391000000112e-04 1.098549110294748061e+03
4.404379105000000055e-04 1.109064531310908251e+03
4.448422895999999942e-04 1.119678933108285037e+03
4.492907125000000020e-04 1.130393206170139592e+03
4.537836196000000254e-04 1.141208247744451910e+03
4.583214557999999890e-04 1.152124961228949815e+03
4.629046703999999839e-04 1.163144256786081542e+03
4.675337170999999971e-04 1.174267053802914688e+03
4.722090543000000075e-04 1.185494277201288469e+03
4.769311447999999981e-04 1.196826858052788339e+03
4.817004561999999762e-04 1.208265737268593739e+03
4.865174607999999952e-04 1.219811861294656183e+03
4.913826354000000365e-04 1.231466183341647593e+03
4.962964617999999530e-04 1.243229663999935610e+03
5.012594264000000454e-04 1.255103273084507464e+03
5.062720205999999981e-04 1.267087985945121545e+03
5.113347408999999958e-04 1.279184785926207041e+03
5.164480882999999880e-04 1.291394663751887947e+03
5.216125690999999466e-04 1.303718616911009576e+03
5.268286947999999961e-04 1.316157649657138563e+03
5.320969818000000464e-04 1.328712776083434392e+03
5.374179515999999652e-04 1.341385015202854902e+03
5.427921311000000540e-04 1.354175395252976386e+03
5.482200524000000082e-04 1.367084950621121607e+03
5.537022529999999568e-04 1.380114723074309495e+03
5.592392754999999868e-04 1.393265762374227961e+03
5.648316682000000108e-04 1.406539126277236392e+03
5.704799849000000275e-04 1.419935879919388526e+03
5.761847848000000360e-04 1.433457095201459879e+03
5.819466326000000134e-04 1.447103852018895168e+03
5.877660989000000431e-04 1.460877236416886944e+03
5.936437598999999479e-04 1.474778342435296281e+03
5.995801975000000263e-04 1.488808272723629443e+03
6.055759995000000329e-04 1.502968136696114470e+03
6.116317594999999595e-04 1.517259051761648607e+03
6.177480770999999905e-04 1.531682141478875792e+03
6.239255578999999613e-04 1.546238538016084476e+03
6.301648135000000083e-04 1.560929379076334953e+03
6.364664616000000052e-04 1.575755811587306880e+03
6.428311261999999525e-04 1.590718989241401005e+03
6.492594374999999989e-04 1.605820071880764090e+03
6.557520318000000306e-04 1.621060229802111508e+03
6.623095521999999499e-04 1.636440636377032206e+03
6.689326476999999825e-04 1.651962474816708209e+03
6.756219742000000228e-04 1.667626935097043543e+03
6.823781938999999835e-04 1.683435213343688019e+03
6.892019758000000103e-04 1.699388513676961793e+03
6.960939955999999621e-04 1.715488046981905427e+03
7.030549354999999969e-04 1.731735030908280805e+03
7.100854848999999837e-04 1.748130689870570905e+03
7.171863397999999603e-04 1.764676255662953281e+03
7.243582032000000451e-04 1.781372966229353096e+03
7.316017851999999811e-04 1.798222067508364717e+03
7.389178030000000032e-04 1.815224809743405103e+03
7.463069811000000355e-04 1.832382452402510808e+03
7.537700508999999960e-04 1.849696259873515373e+03
7.613077513999999676e-04 1.867167502693998358e+03
7.689208289000000474e-04 1.884797460011184057e+03
7.766100371999999771e-04 1.902587415277119817e+03
7.843761376000000108e-04 1.920538657478623918e+03
7.922198989000000472e-04 1.938652484212159834e+03
8.001420978999999531e-04 1.956930196149063477e+03
8.081435188999999989e-04 1.975373102570317315e+03
8.162249541000000117e-04 1.993982517676698080e+03
8.243872036000000252e-04 2.012759761818731704e+03
8.326310756999999972e-04 2.031706160266738607e+03
8.409573864000000282e-04 2.050823045055761668e+03
8.493669603000000541e-04 2.070111752525665906e+03
8.578606299000000011e-04 2.089573625781037208e+03
8.664392361999999782e-04 2.109210013461231938e+03
8.751036285999999739e-04 2.129022267895456480e+03
8.838546647999999872e-04 2.149011748792610433e+03
8.926932114999999810e-04 2.169179818936468564e+03
9.016201435999999505e-04 2.189527847875524913e+03
9.106363449999999634e-04 2.210057208848122173e+03
9.197427084999999650e-04 2.230769280627374428e+03
9.289401356000000394e-04 2.251665446906192756e+03
9.382295368999999958e-04 2.272747096912260531e+03
9.476118322999999748e-04 2.294015623563107056e+03
9.570879505999999948e-04 2.315472424696060898e+03
9.666588301000000362e-04 2.337118903683220651e+03
9.763254183999999771e-04 2.358956466971559166e+03
9.860886725999999831e-04 2.380986525312870526e+03
9.959495593000000733e-04 2.403210494993721568e+03
1.005909054999999924e-03 2.425629795990526418e+03
1.015968144999999977e-03 2.448245852584521344e+03
1.026127827000000107e-03 2.471060091516841567e+03
1.036389104999999988e-03 2.494073946293342942e+03
1.046752995999999892e-03 2.517288852264805428e+03
1.057220526000000058e-03 2.540706250931755221e+03
1.067792731000000031e-03 2.564327586254616108e+03
1.078470658999999962e-03 2.588154304653711733e+03
1.089255364999999970e-03 2.612187856854188340e+03
1.100147918999999901e-03 2.636429696041088846e+03
1.111149398000000005e-03 2.660881278474329974e+03
1.122260892000000046e-03 2.685544065333626804e+03
1.133483500999999966e-03 2.710419521488541704e+03
1.144818336000000096e-03 2.735509111193661283e+03
1.156266520000000068e-03 2.760814303008394290e+03
1.167829184999999914e-03 2.786336567337075849e+03
1.179507477000000040e-03 2.812077375199013659e+03
1.191302550999999953e-03 2.838038201918338018e+03
1.203215576999999963e-03 2.864220520359280272e+03
1.215247732999999919e-03 2.890625807690896636e+03
1.227400210000000047e-03 2.917255540467265291e+03
1.239674212000000091e-03 2.944111199547289743e+03
1.252070953999999967e-03 2.971194259025150586e+03
1.264591663999999971e-03 2.998506190535131282e+03
1.277237579999999928e-03 3.026048471861260168e+03
1.290009956000000031e-03 3.053822595546957018e+03
1.302910055999999999e-03 3.081830044296048527e+03
1.315939155999999938e-03 3.110072230090279390e+03
1.329098548000000107e-03 3.138550514483472853e+03
1.342389533000000077e-03 3.167265880820059010e+03
1.355813429000000004e-03 3.196218986507913087e+03
1.369371563000000005e-03 3.225411063956188627e+03
1.383065278999999915e-03 3.254844509106032547e+03
1.396895930999999961e-03 3.284521683460014174e+03
1.410864891000000081e-03 3.314444007609521123e+03
1.424973539999999962e-03 3.344612626637310314e+03
1.439223275000000093e-03 3.375028885492890367e+03
1.453615508000000037e-03 3.405694277949630305e+03
1.468151662999999957e-03 3.436610258422525021e+03
1.482833178999999960e-03 3.467778206299661633e+03
1.497661511000000084e-03 3.499199494819383744e+03
1.512638126000000107e-03 3.530875503984753777e+03
1.527764507999999953e-03 3.562807611338937932e+03
1.543042152999999934e-03 3.594997178435759452e+03
1.558472574000000074e-03 3.627445552069651967e+03
1.574057299999999902e-03 3.660154071040379222e+03
1.589797872999999979e-03 3.693124063078161726e+03
1.605695851999999930e-03 3.726356846688599035e+03
1.621752809999999975e-03 3.759853726847850339e+03
1.637970338000000045e-03 3.793615999922430092e+03
1.654350042000000010e-03 3.827644949364385411e+03
1.670893541999999904e-03 3.861941846941244421e+03
1.687602476999999898e-03 3.896507953965968682e+03
1.704478502000000102e-03 3.931344518222075294e+03
1.721523286999999914e-03 3.966452777038513887e+03
1.738738519999999963e-03 4.001833954829768572e+03
1.756125904999999944e-03 4.037489266785702512e+03
1.773687163999999915e-03 4.073419912106837728e+03
1.791424036000000084e-03 4.109627080154104078e+03
1.809338275999999943e-03 4.146111945529039076e+03
1.827431658999999989e-03 4.182875671148663059e+03
1.845705976000000005e-03 4.219919404555627807e+03
1.864163035999999917e-03 4.257244278533200486e+03
1.882804666000000016e-03 4.294851409260327273e+03
1.901632713000000075e-03 4.332741898771540036e+03
1.920649040000000024e-03 4.370916830652132376e+03
1.939855529999999929e-03 4.409377269423183861e+03
1.959254085000000211e-03 4.448124259926585182e+03
1.978846625999999918e-03 4.487158826710066933e+03
1.998635091999999974e-03 4.526481970337345956e+03
2.018621442999999922e-03 4.566094669848029298e+03
2.038807658000000092e-03 4.605997875992889931e+03
2.059195733999999878e-03 4.646192516153666475e+03
2.079787691999999879e-03 4.686679488193314683e+03
2.100585569000000194e-03 4.727459659841032590e+03
2.121591423999999969e-03 4.768533871767136588e+03
2.142807338999999991e-03 4.809902929588387451e+03
2.164235412000000119e-03 4.851567612477638249e+03
2.185877766000000107e-03 4.893528660249364293e+03
2.207736544000000068e-03 4.935786785659161069e+03
2.229813909000000031e-03 4.978342663334190547e+03
2.252112047999999932e-03 5.021196937152892133e+03
2.274633169000000055e-03 5.064350217785067798e+03
2.297379500000000171e-03 5.107803081461943293e+03
2.320353294999999948e-03 5.151556073666012708e+03
2.343556827999999839e-03 5.195609705441192091e+03
2.366992397000000203e-03 5.239964456467690979e+03
2.390662321000000014e-03 5.284620775062011489e+03
2.414568943999999880e-03 5.329579079406900746e+03
2.438714632999999885e-03 5.374839754476473900e+03
2.463101780000000011e-03 5.420403155726067780e+03
2.487732797000000162e-03 5.466269605402386333e+03
2.512610125000000125e-03 5.512439393158477287e+03
2.537736227000000032e-03 5.558912776053738526e+03
2.563113588999999925e-03 5.605689973019132594e+03
2.588744725000000167e-03 5.652771170391974010e+03
2.614632172000000161e-03 5.700156511461351329e+03
2.640778494000000070e-03 5.747846098313050788e+03
2.667186278999999962e-03 5.795839990599613884e+03
2.693858141999999796e-03 5.844138196315710047e+03
2.720796722999999865e-03 5.892740680407782747e+03
2.748004689999999917e-03 5.941647348169742145e+03
2.775484737000000028e-03 5.990858055082550891e+03
2.803239584000000173e-03 6.040372597589605903e+03
2.831271980000000209e-03 6.090190713711716853e+03
2.859584699999999889e-03 6.140312086736949823e+03
2.888180547000000157e-03 6.190736335381038771e+03
2.917062353000000104e-03 6.241463021782046781e+03
2.946232976000000021e-03 6.292491648425499989e+03
2.975695306000000068e-03 6.343821661834235783e+03
3.005452258999999869e-03 6.395452459333117076e+03
3.035506780999999796e-03 6.447383370599804039e+03
3.065861849000000097e-03 6.499613688413472119e+03
3.096520468000000040e-03 6.552142644055837081e+03
3.127485672000000078e-03 6.604969425760394188e+03
3.158760529000000095e-03 6.658093154113423225e+03
3.190348133999999867e-03 6.711512906652987112e+03
3.222251615999999902e-03 6.765227754767395709e+03
3.254474132000000162e-03 6.819236769844963419e+03
3.287018873000000039e-03 6.873538906428822884e+03
3.319889062000000099e-03 6.928132922270227937e+03
3.353087952999999916e-03 6.983017538221955874e+03
3.386618831999999805e-03 7.038191450537794481e+03
3.420485020999999935e-03 7.093653281674578466e+03
3.454689870999999926e-03 7.149401574142443678e+03
3.489236769000000123e-03 7.205434765905837594e+03
3.524129136999999863e-03 7.261751221132249157e+03
3.559370428000000093e-03 7.318349224042471178e+03
3.594964132999999874e-03 7.375226972760842727e+03
3.630913773999999879e-03 7.432382579315261864e+03
3.667222912000000189e-03 7.489814100385905476e+03
3.703895140999999887e-03 7.547519506556503984e+03
3.740934092000000079e-03 7.605496694613832005e+03
3.778343432999999984e-03 7.663743499847201747e+03
3.816126867999999981e-03 7.722257696048464823e+03
3.854288135999999875e-03 7.781036964763274227e+03
3.892831018000000171e-03 7.840078932189571788e+03
3.931759328000000372e-03 7.899381144578592284e+03
3.971076920999999822e-03 7.958941037486141795e+03
4.010787689999999878e-03 8.018755984970561258e+03
4.050895566999999572e-03 8.078823231945524640e+03
4.091404522999999953e-03 8.139139918779011168e+03
4.132318567999999741e-03 8.199703099742557242e+03
4.173641754000000093e-03 8.260509681513791293e+03
4.215378171000000278e-03 8.321556472374397345e+03
4.257531953000000258e-03 8.382840151461386995e+03
4.300107273000000271e-03 8.444357311815325374e+03
4.343108344999999960e-03 8.506104441931092879e+03
4.386539428999999650e-03 8.568077956506615010e+03
4.430404823000000381e-03 8.630274147244886990e+03
4.474708871000000407e-03 8.692689152105249377e+03
4.519455959999999980e-03 8.755319053699329743e+03
4.564650519999999614e-03 8.818160168329110093e+03
4.610297024999999646e-03 8.881208726200125966e+03
4.656399995000000229e-03 8.944459936660032326e+03
4.702963995000000036e-03 9.007908184990481459e+03
4.749993634999999728e-03 9.071548883480760196e+03
4.797493570999999783e-03 9.135379387739963931e+03
4.845468506999999619e-03 9.199396622894961183e+03
