#             Piccolo C0 - Cosmology             
# +--------+--------+--------+--------+---------+
# |  Om0   |   h    |  Ob0   |   ns   | sigma_8 |
# +--------+--------+--------+--------+---------+
# | 0.3158 | 0.6732 | 0.0494 | 0.9661 |  0.8102 |
# +--------+--------+--------+--------+---------+
#        sigma8(z) = 0.7231 for z = 0.2137 
#    sigma8(z)/sigma8 = 0.8925 | G(z) = 0.8925 
# 
#     k [h/Mpc]              P(k) [(Mpc/h)^3]
1.000000000000000048e-04 3.321210795471899360e+02
1.010000000000000020e-04 3.353273796166513989e+02
1.020099999999999940e-04 3.385645976451040156e+02
1.030301000000000014e-04 3.418330305056495035e+02
1.040604010000000001e-04 3.451329782966016637e+02
1.051010050000000026e-04 3.484647437271605099e+02
1.061520150999999953e-04 3.518286324245751189e+02
1.072135352000000051e-04 3.552249530877251686e+02
1.082856706000000067e-04 3.586540171031672912e+02
1.093685272999999968e-04 3.621161386987162700e+02
1.104622125000000052e-04 3.656116351738176604e+02
1.115668347000000048e-04 3.691408269763383032e+02
1.126825029999999989e-04 3.727040379329389452e+02
1.138093279999999980e-04 3.763015946347476870e+02
1.149474212999999955e-04 3.799338265141512920e+02
1.160968954999999940e-04 3.836010659215851888e+02
1.172578644999999937e-04 3.873036488934420163e+02
1.184304430999999995e-04 3.910419145377447308e+02
1.196147475999999966e-04 3.948162053413102512e+02
1.208108950000000054e-04 3.986268665554227937e+02
1.220190039999999960e-04 4.024742469637421323e+02
1.232391939999999875e-04 4.063586986519307516e+02
1.244715860000000112e-04 4.102805768540727627e+02
1.257163018000000034e-04 4.142402404134178369e+02
1.269734649000000127e-04 4.182380514752191516e+02
1.282431994999999874e-04 4.222743756403140765e+02
1.295256314999999880e-04 4.263495817347521211e+02
1.308208877999999901e-04 4.304640422705396077e+02
1.321290967000000123e-04 4.346181332152673349e+02
1.334503876999999978e-04 4.388122341456922300e+02
1.347848915000000045e-04 4.430467281709462100e+02
1.361327404000000079e-04 4.473220019325368071e+02
1.374940678999999894e-04 4.516384456811371138e+02
1.388690085000000081e-04 4.559964530462142989e+02
1.402576986000000014e-04 4.603964217271458779e+02
1.416602756000000110e-04 4.648387534932201675e+02
1.430768783999999917e-04 4.693238537996820128e+02
1.445076471000000123e-04 4.738521312501980560e+02
1.459527235999999884e-04 4.784239982879727222e+02
1.474122508999999991e-04 4.830398716564939150e+02
1.488863734000000041e-04 4.877001720923689732e+02
1.503752370999999891e-04 4.924053243253250685e+02
1.518789894999999883e-04 4.971557566942556718e+02
1.533977793999999925e-04 5.019519016847553985e+02
1.549317571999999916e-04 5.067941956219571011e+02
1.564810746999999917e-04 5.116830789776953452e+02
1.580458855000000079e-04 5.166189964472963538e+02
1.596263443000000019e-04 5.216023968727881766e+02
1.612226078000000091e-04 5.266337333964814889e+02
1.628348338000000116e-04 5.317134629234344629e+02
1.644631821999999882e-04 5.368420468125699472e+02
1.661078140000000006e-04 5.420199511838382023e+02
1.677688920999999885e-04 5.472476462270998354e+02
1.694465811000000046e-04 5.525256063557081916e+02
1.711410469000000038e-04 5.578543099761354824e+02
1.728524573000000096e-04 5.632342402558825825e+02
1.745809819000000002e-04 5.686658852770584645e+02
1.763267916999999971e-04 5.741497373452647253e+02
1.780900596999999866e-04 5.796862932199670695e+02
1.798709602999999982e-04 5.852760541912869030e+02
1.816696698999999994e-04 5.909195260800001961e+02
1.834863665999999886e-04 5.966172194679108998e+02
1.853212301999999955e-04 6.023696497746410614e+02
1.871744424999999875e-04 6.081773372576309384e+02
1.890461869000000124e-04 6.140408070889301371e+02
1.909366488000000016e-04 6.199605885104981553e+02
1.928460152999999990e-04 6.259372160628580559e+02
1.947744755000000133e-04 6.319712293547232775e+02
1.967222202000000030e-04 6.380631730629975209e+02
1.986894424000000103e-04 6.442135964720309858e+02
2.006763367999999997e-04 6.504230540111547043e+02
2.026831001999999872e-04 6.566921050243089439e+02
2.047099311999999978e-04 6.630213140004152592e+02
2.067570304999999994e-04 6.694112508037488851e+02
2.088246008000000059e-04 6.758624902131944054e+02
2.109128467999999963e-04 6.823756124597799726e+02
2.130219753000000009e-04 6.889512029963065061e+02
2.151521950999999875e-04 6.955898525741376943e+02
2.173037169999999976e-04 7.022921573967814766e+02
2.194767542000000031e-04 7.090587191198899291e+02
2.216715217000000124e-04 7.158901446976788066e+02
2.238882368999999917e-04 7.227870463061351529e+02
2.261271193000000124e-04 7.297500417269721993e+02
2.283883905000000077e-04 7.367797544244200481e+02
2.306722743999999991e-04 7.438768136988068136e+02
2.329789971000000102e-04 7.510418543793957724e+02
2.353087870999999952e-04 7.582755173619209472e+02
2.376618749999999869e-04 7.655784488406787887e+02
2.400384936999999978e-04 7.729513007692736437e+02
2.424388787000000085e-04 7.803947303230817170e+02
2.448632675000000187e-04 7.879094017422298748e+02
2.473119001000000181e-04 7.954959846421983229e+02
2.497850190999999914e-04 8.031551563175440833e+02
2.522828692999999796e-04 8.108875955986395638e+02
2.548056980000000136e-04 8.186939920665643058e+02
2.573537550000000061e-04 8.265750391419363723e+02
2.599272926000000222e-04 8.345314363886343472e+02
2.625265654999999767e-04 8.425638918175222898e+02
2.651518311000000011e-04 8.506731157431860311e+02
2.678033493999999780e-04 8.588598276951043999e+02
2.704813828999999971e-04 8.671247525781092236e+02
2.731861967999999852e-04 8.754686229761088043e+02
2.759180586999999897e-04 8.838921753125503074e+02
2.786772393000000242e-04 8.923961536899573730e+02
2.814640117000000055e-04 9.009813106578374118e+02
2.842786517999999914e-04 9.096484033731442196e+02
2.871214383999999955e-04 9.183981951360929088e+02
2.899926526999999890e-04 9.272314576938828168e+02
2.928925793000000059e-04 9.361489666332515753e+02
2.958215051000000055e-04 9.451515082916438359e+02
2.987797201000000217e-04 9.542398728460427719e+02
3.017675173000000221e-04 9.634148589204160089e+02
3.047851925000000066e-04 9.726772697461766484e+02
3.078330443999999851e-04 9.820279185375377438e+02
3.109113749000000197e-04 9.914676231161583928e+02
3.140204886000000101e-04 1.000997208982774168e+03
3.171606935000000267e-04 1.010617510853012504e+03
3.203323004000000092e-04 1.020329367282039016e+03
3.235356233999999820e-04 1.030133626807819155e+03
3.267709796999999894e-04 1.040031142575764534e+03
3.300386895000000098e-04 1.050022775410362783e+03
3.333390763999999752e-04 1.060109396886809236e+03
3.366724671000000005e-04 1.070291883187745270e+03
3.400391918000000239e-04 1.080571117406980648e+03
3.434395837000000259e-04 1.090947989549494650e+03
3.468739794999999731e-04 1.101423400370973923e+03
3.503427193000000026e-04 1.111998256770365515e+03
3.538461465000000109e-04 1.122673471789878704e+03
3.573846079999999886e-04 1.133449967686614173e+03
3.609584540999999890e-04 1.144328672860934148e+03
3.645680385999999968e-04 1.155310525696000013e+03
3.682137189999999932e-04 1.166396471486142900e+03
3.718958562000000212e-04 1.177587462436862097e+03
3.756148148000000120e-04 1.188884459968549436e+03
3.793709628999999907e-04 1.200288433180673110e+03
3.831646724999999889e-04 1.211800358851777446e+03
3.869963192999999798e-04 1.223421222207392020e+03
3.908662823999999991e-04 1.235152014616306587e+03
3.947749452999999779e-04 1.246993737430111651e+03
3.987226947000000084e-04 1.258947401215288664e+03
4.027099217000000239e-04 1.271014022681581082e+03
4.067370208999999980e-04 1.283194627753623308e+03
4.108043911000000071e-04 1.295490251570943201e+03
4.149124350000000247e-04 1.307901936952144069e+03
4.190615593999999868e-04 1.320430732091183017e+03
4.232521749999999978e-04 1.333077698236447532e+03
4.274846966999999937e-04 1.345843903547494165e+03
4.317595436999999907e-04 1.358730424630863581e+03
4.360771391000000112e-04 1.371738345772173034e+03
4.404379105000000055e-04 1.384868761239839387e+03
4.448422895999999942e-04 1.398122772213448343e+03
4.492907125000000020e-04 1.411501490623293648e+03
4.537836196000000254e-04 1.425006036846652023e+03
4.583214557999999890e-04 1.438637538939877459e+03
4.629046703999999839e-04 1.452397133406308967e+03
4.675337170999999971e-04 1.466285968267898852e+03
4.722090543000000075e-04 1.480305198457769620e+03
4.769311447999999981e-04 1.494455986588119913e+03
4.817004561999999762e-04 1.508739507557670777e+03
4.865174607999999952e-04 1.523156943176313007e+03
4.913826354000000365e-04 1.537709483700920828e+03
4.962964617999999530e-04 1.552398328603260779e+03
5.012594264000000454e-04 1.567224688873714058e+03
5.062720205999999981e-04 1.582189782413831381e+03
5.113347408999999958e-04 1.597294837107962167e+03
5.164480882999999880e-04 1.612541090055348604e+03
5.216125690999999466e-04 1.627929786802216313e+03
5.268286947999999961e-04 1.643462181341776386e+03
5.320969818000000464e-04 1.659139539953761187e+03
5.374179515999999652e-04 1.674963135061165303e+03
5.427921311000000540e-04 1.690934250605597981e+03
5.482200524000000082e-04 1.707054178207744599e+03
5.537022529999999568e-04 1.723324218703183305e+03
5.592392754999999868e-04 1.739745682910290725e+03
5.648316682000000108e-04 1.756319891630244683e+03
5.704799849000000275e-04 1.773048174879113276e+03
5.761847848000000360e-04 1.789931871119950074e+03
5.819466326000000134e-04 1.806972328798607123e+03
5.877660989000000431e-04 1.824170904040014420e+03
5.936437598999999479e-04 1.841528962951900439e+03
5.995801975000000263e-04 1.859047882392701240e+03
6.055759995000000329e-04 1.876729047667837904e+03
6.116317594999999595e-04 1.894573854065529758e+03
6.177480770999999905e-04 1.912583704553073630e+03
6.239255578999999613e-04 1.930760012848473252e+03
6.301648135000000083e-04 1.949104199580901877e+03
6.364664616000000052e-04 1.967617696898146505e+03
6.428311261999999525e-04 1.986301945394979839e+03
6.492594374999999989e-04 2.005158393345250261e+03
6.557520318000000306e-04 2.024188502077236308e+03
6.623095521999999499e-04 2.043393736758755949e+03
6.689326476999999825e-04 2.062775574844147741e+03
6.756219742000000228e-04 2.082335502234736850e+03
6.823781938999999835e-04 2.102075012510922534e+03
6.892019758000000103e-04 2.121995609235906613e+03
6.960939955999999621e-04 2.142098804419872522e+03
7.030549354999999969e-04 2.162386118519989395e+03
7.100854848999999837e-04 2.182859080440410253e+03
7.171863397999999603e-04 2.203519228300178838e+03
7.243582032000000451e-04 2.224368107897419122e+03
7.316017851999999811e-04 2.245407275013049912e+03
7.389178030000000032e-04 2.266638290803347445e+03
7.463069811000000355e-04 2.288062727943201025e+03
7.537700508999999960e-04 2.309682165250761500e+03
7.613077513999999676e-04 2.331498189223256304e+03
7.689208289000000474e-04 2.353512397108620462e+03
7.766100371999999771e-04 2.375726391530142791e+03
7.843761376000000108e-04 2.398141782022280040e+03
7.922198989000000472e-04 2.420760188870197453e+03
8.001420978999999531e-04 2.443583236198597206e+03
8.081435188999999989e-04 2.466612558882890880e+03
8.162249541000000117e-04 2.489849797941748875e+03
8.243872036000000252e-04 2.513296602072919995e+03
8.326310756999999972e-04 2.536954626117413227e+03
8.409573864000000282e-04 2.560825533363221894e+03
8.493669603000000541e-04 2.584910992473694023e+03
8.578606299000000011e-04 2.609212680559161527e+03
8.664392361999999782e-04 2.633732281641123336e+03
8.751036285999999739e-04 2.658471484348527611e+03
8.838546647999999872e-04 2.683431986525211869e+03
8.926932114999999810e-04 2.708615489854553743e+03
9.016201435999999505e-04 2.734023704466913387e+03
9.106363449999999634e-04 2.759658345100097449e+03
9.197427084999999650e-04 2.785521133403082786e+03
9.289401356000000394e-04 2.811613797168106430e+03
9.382295368999999958e-04 2.837938071098574710e+03
9.476118322999999748e-04 2.864495694505338633e+03
9.570879505999999948e-04 2.891288412842513026e+03
9.666588301000000362e-04 2.918317978475378823e+03
9.763254183999999771e-04 2.945586147608758438e+03
9.860886725999999831e-04 2.973094681822824441e+03
9.959495593000000733e-04 3.000845349608921424e+03
1.005909054999999924e-03 3.028839924065837295e+03
1.015968144999999977e-03 3.057080183667716028e+03
1.026127827000000107e-03 3.085567909960330780e+03
1.036389104999999988e-03 3.114304892936439046e+03
1.046752995999999892e-03 3.143292924892522024e+03
1.057220526000000058e-03 3.172533805804136591e+03
1.067792731000000031e-03 3.202029338718470626e+03
1.078470658999999962e-03 3.231781329754343005e+03
1.089255364999999970e-03 3.261791590405926399e+03
1.100147918999999901e-03 3.292061935239023569e+03
1.111149398000000005e-03 3.322594182658974205e+03
1.122260892000000046e-03 3.353390157214382725e+03
1.133483500999999966e-03 3.384451688061297773e+03
1.144818336000000096e-03 3.415780603587858877e+03
1.156266520000000068e-03 3.447378737557560271e+03
1.167829184999999914e-03 3.479247926037620346e+03
1.179507477000000040e-03 3.511390005863163879e+03
1.191302550999999953e-03 3.543806819244669441e+03
1.203215576999999963e-03 3.576500205320984605e+03
1.215247732999999919e-03 3.609472008606312556e+03
1.227400210000000047e-03 3.642724072846945546e+03
1.239674212000000091e-03 3.676258247164532349e+03
1.252070953999999967e-03 3.710076372233736038e+03
1.264591663999999971e-03 3.744180285657590048e+03
1.277237579999999928e-03 3.778571832718202131e+03
1.290009956000000031e-03 3.813252877127466490e+03
1.302910055999999999e-03 3.848225270310753331e+03
1.315939155999999938e-03 3.883490775384052995e+03
1.329098548000000107e-03 3.919051092494926252e+03
1.342389533000000077e-03 3.954907449527723202e+03
1.355813429000000004e-03 3.991060667375733829e+03
1.369371563000000005e-03 4.027512284925910535e+03
1.383065278999999915e-03 4.064265293946499241e+03
1.396895930999999961e-03 4.101322643202920517e+03
1.410864891000000081e-03 4.138686106561868655e+03
1.424973539999999962e-03 4.176357113867410590e+03
1.439223275000000093e-03 4.214337344533600117e+03
1.453615508000000037e-03 4.252628663808144665e+03
1.468151662999999957e-03 4.291232887792664769e+03
1.482833178999999960e-03 4.330151738904041849e+03
1.497661511000000084e-03 4.369386931880083466e+03
1.512638126000000107e-03 4.408940189905581065e+03
1.527764507999999953e-03 4.448813233093695999e+03
1.543042152999999934e-03 4.489007761591989038e+03
1.558472574000000074e-03 4.529525457118236773e+03
1.574057299999999902e-03 4.570367991407418231e+03
1.589797872999999979e-03 4.611537022372173851e+03
1.605695851999999930e-03 4.653034196406528281e+03
1.621752809999999975e-03 4.694861143010537489e+03
1.637970338000000045e-03 4.737019480933551677e+03
1.654350042000000010e-03 4.779510812798858751e+03
1.670893541999999904e-03 4.822336726639502558e+03
1.687602476999999898e-03 4.865498797434094740e+03
1.704478502000000102e-03 4.908998583267280083e+03
1.721523286999999914e-03 4.952837629169272077e+03
1.738738519999999963e-03 4.997017464044222834e+03
1.756125904999999944e-03 5.041539605277673218e+03
1.773687163999999915e-03 5.086405550289558960e+03
1.791424036000000084e-03 5.131616784213299070e+03
1.809338275999999943e-03 5.177174773752524743e+03
1.827431658999999989e-03 5.223080971020623110e+03
1.845705976000000005e-03 5.269336808933288012e+03
1.864163035999999917e-03 5.315943701976433658e+03
1.882804666000000016e-03 5.362903043902463651e+03
1.901632713000000075e-03 5.410216210801905618e+03
1.920649040000000024e-03 5.457884555728058331e+03
1.939855529999999929e-03 5.505909407929084409e+03
1.959254085000000211e-03 5.554292072080098478e+03
1.978846625999999918e-03 5.603033827515265330e+03
1.998635091999999974e-03 5.652135923620347057e+03
2.018621442999999922e-03 5.701599582904341332e+03
2.038807658000000092e-03 5.751425992552492971e+03
2.059195733999999878e-03 5.801616310569552297e+03
2.079787691999999879e-03 5.852171658100705827e+03
2.100585569000000194e-03 5.903093118663663518e+03
2.121591423999999969e-03 5.954381741988197973e+03
2.142807338999999991e-03 6.006038534033344149e+03
2.164235412000000119e-03 6.058064467738108760e+03
2.185877766000000107e-03 6.110460466895407080e+03
2.207736544000000068e-03 6.163227421510221575e+03
2.229813909000000031e-03 6.216366173977251492e+03
2.252112047999999932e-03 6.269877528295822231e+03
2.274633169000000055e-03 6.323762246998238879e+03
2.297379500000000171e-03 6.378021049613980722e+03
2.320353294999999948e-03 6.432654617277140460e+03
2.343556827999999839e-03 6.487663588118988628e+03
2.366992397000000203e-03 6.543048561107498244e+03
2.390662321000000014e-03 6.598810096047353909e+03
2.414568943999999880e-03 6.654948715115766390e+03
2.438714632999999885e-03 6.711464899022929785e+03
2.463101780000000011e-03 6.768359091619474384e+03
2.487732797000000162e-03 6.825631695289012896e+03
2.512610125000000125e-03 6.883283071716053200e+03
2.537736227000000032e-03 6.941313541886000166e+03
2.563113588999999925e-03 6.999723379173978174e+03
2.588744725000000167e-03 7.058512816256010410e+03
2.614632172000000161e-03 7.117682032054580304e+03
2.640778494000000070e-03 7.177231154042360686e+03
2.667186278999999962e-03 7.237160256706395558e+03
2.693858141999999796e-03 7.297469350029483394e+03
2.720796722999999865e-03 7.358158390240885637e+03
2.748004689999999917e-03 7.419227259082825185e+03
2.775484737000000028e-03 7.480675776097002199e+03
2.803239584000000173e-03 7.542503687105978315e+03
2.831271980000000209e-03 7.604710664981091213e+03
2.859584699999999889e-03 7.667296314249894749e+03
2.888180547000000157e-03 7.730260158809641325e+03
2.917062353000000104e-03 7.793601651910075816e+03
2.946232976000000021e-03 7.857320172313898183e+03
2.975695306000000068e-03 7.921415028904214523e+03
3.005452258999999869e-03 7.985885469131517311e+03
3.035506780999999796e-03 8.050730655976457456e+03
3.065861849000000097e-03 8.115949706345223603e+03
3.096520468000000040e-03 8.181541660353237603e+03
3.127485672000000078e-03 8.247505504362390639e+03
3.158760529000000095e-03 8.313840140264725051e+03
3.190348133999999867e-03 8.380544416198750696e+03
3.222251615999999902e-03 8.447617172623899023e+03
3.254474132000000162e-03 8.515057249999601481e+03
3.287018873000000039e-03 8.582863342882832512e+03
3.319889062000000099e-03 8.651033900100121173e+03
3.353087952999999916e-03 8.719567324403531529e+03
3.386618831999999805e-03 8.788461987828821293e+03
3.420485020999999935e-03 8.857716170262827291e+03
3.454689870999999926e-03 8.927328051764397969e+03
3.489236769000000123e-03 8.997295681848070672e+03
3.524129136999999863e-03 9.067617017879469131e+03
3.559370428000000093e-03 9.138289917396219607e+03
3.594964132999999874e-03 9.209312130428872479e+03
3.630913773999999879e-03 9.280681299500913155e+03
3.667222912000000189e-03 9.352394998024126835e+03
3.703895140999999887e-03 9.424450691903239203e+03
3.740934092000000079e-03 9.496845754894044148e+03
3.778343432999999984e-03 9.569577483961576945e+03
3.816126867999999981e-03 9.642643099280105162e+03
3.854288135999999875e-03 9.716039705837747533e+03
3.892831018000000171e-03 9.789764339510933496e+03
3.931759328000000372e-03 9.863813936348091374e+03
3.971076920999999822e-03 9.938185294174278170e+03
4.010787689999999878e-03 1.001287513402377954e+04
4.050895566999999572e-03 1.008788001567027823e+04
4.091404522999999953e-03 1.016319636834314588e+04
4.132318567999999741e-03 1.023882051376468917e+04
4.173641754000000093e-03 1.031474858935937300e+04
4.215378171000000278e-03 1.039097660968643868e+04
4.257531953000000258e-03 1.046750042804451368e+04
4.300107273000000271e-03 1.054431579022515507e+04
4.343108344999999960e-03 1.062141831147562152e+04
4.386539428999999650e-03 1.069880351489425084e+04
4.430404823000000381e-03 1.077646676999784540e+04
4.474708871000000407e-03 1.085440325432629288e+04
4.519455959999999980e-03 1.093260807630779345e+04
4.564650519999999614e-03 1.101107663617545950e+04
4.610297024999999646e-03 1.108980422665532751e+04
4.656399995000000229e-03 1.116878486574672206e+04
4.702963995000000036e-03 1.124801154245269208e+04
4.749993634999999728e-03 1.132747852818209321e+04
4.797493570999999783e-03 1.140718252093197589e+04
4.845468506999999619e-03 1.148711968116404205e+04
