#             Piccolo C0 - Cosmology             
# +--------+--------+--------+--------+---------+
# |  Om0   |   h    |  Ob0   |   ns   | sigma_8 |
# +--------+--------+--------+--------+---------+
# | 0.3158 | 0.6732 | 0.0494 | 0.9661 |  0.8102 |
# +--------+--------+--------+--------+---------+
#        sigma8(z) = 0.5714 for z = 0.6734 
#    sigma8(z)/sigma8 = 0.7053 | G(z) = 0.7053 
# 
#     k [h/Mpc]              P(k) [(Mpc/h)^3]
1.000000000000000048e-04 2.073820414069297442e+02
1.010000000000000020e-04 2.093841096125210868e+02
1.020099999999999940e-04 2.114054835166861608e+02
1.030301000000000014e-04 2.134463484920304950e+02
1.040604010000000001e-04 2.155068919250368538e+02
1.051010050000000026e-04 2.175873028324696747e+02
1.061520150999999953e-04 2.196877720531727221e+02
1.072135352000000051e-04 2.218084923439681120e+02
1.082856706000000067e-04 2.239496581399090473e+02
1.093685272999999968e-04 2.261114656501786442e+02
1.104622125000000052e-04 2.282941130019383706e+02
1.115668347000000048e-04 2.304978002882774035e+02
1.126825029999999989e-04 2.327227297120611809e+02
1.138093279999999980e-04 2.349691052023355837e+02
1.149474212999999955e-04 2.372371324622765485e+02
1.160968954999999940e-04 2.395270190171392244e+02
1.172578644999999937e-04 2.418389746937529310e+02
1.184304430999999995e-04 2.441732112369252263e+02
1.196147475999999966e-04 2.465299425012399581e+02
1.208108950000000054e-04 2.489093840674612466e+02
1.220190039999999960e-04 2.513117537220285271e+02
1.232391939999999875e-04 2.537372713132077706e+02
1.244715860000000112e-04 2.561861586551929122e+02
1.257163018000000034e-04 2.586586398158020756e+02
1.269734649000000127e-04 2.611549409246805453e+02
1.282431994999999874e-04 2.636752902691989107e+02
1.295256314999999880e-04 2.662199181506051673e+02
1.308208877999999901e-04 2.687890571717211969e+02
1.321290967000000123e-04 2.713829420930945275e+02
1.334503876999999978e-04 2.740018099288972167e+02
1.347848915000000045e-04 2.766458998989764950e+02
1.361327404000000079e-04 2.793154534288546529e+02
1.374940678999999894e-04 2.820107141976783396e+02
1.388690085000000081e-04 2.847319279943706078e+02
1.402576986000000014e-04 2.874793431491755769e+02
1.416602756000000110e-04 2.902532105336588870e+02
1.430768783999999917e-04 2.930537833209599512e+02
1.445076471000000123e-04 2.958813166501461183e+02
1.459527235999999884e-04 2.987360680577575636e+02
1.474122508999999991e-04 3.016182977655042237e+02
1.488863734000000041e-04 3.045282684884678019e+02
1.503752370999999891e-04 3.074662454351017118e+02
1.518789894999999883e-04 3.104324960674841236e+02
1.533977793999999925e-04 3.134272904369638582e+02
1.549317571999999916e-04 3.164509009923625626e+02
1.564810746999999917e-04 3.195036027717727620e+02
1.580458855000000079e-04 3.225856734505071017e+02
1.596263443000000019e-04 3.256973932931490481e+02
1.612226078000000091e-04 3.288390452494516012e+02
1.628348338000000116e-04 3.320109146186913449e+02
1.644631821999999882e-04 3.352132894812134509e+02
1.661078140000000006e-04 3.384464608902293890e+02
1.677688920999999885e-04 3.417107224402718657e+02
1.694465811000000046e-04 3.450063703630940495e+02
1.711410469000000038e-04 3.483337033838206480e+02
1.728524573000000096e-04 3.516930232004430650e+02
1.745809819000000002e-04 3.550846345797177150e+02
1.763267916999999971e-04 3.585088449256215313e+02
1.780900596999999866e-04 3.619659644231996936e+02
1.798709602999999982e-04 3.654563060865158377e+02
1.816696698999999994e-04 3.689801857586512028e+02
1.834863665999999886e-04 3.725379222555536671e+02
1.853212301999999955e-04 3.761298374139869338e+02
1.871744424999999875e-04 3.797562560915307017e+02
1.890461869000000124e-04 3.834175062145299080e+02
1.909366488000000016e-04 3.871139182506504426e+02
1.928460152999999990e-04 3.908458259760713531e+02
1.947744755000000133e-04 3.946135663316357522e+02
1.967222202000000030e-04 3.984174794228507608e+02
1.986894424000000103e-04 4.022579082321914257e+02
2.006763367999999997e-04 4.061351989547459311e+02
2.026831001999999872e-04 4.100497008543683251e+02
2.047099311999999978e-04 4.140017664075260200e+02
2.067570304999999994e-04 4.179917514471486015e+02
2.088246008000000059e-04 4.220200148749312916e+02
2.109128467999999963e-04 4.260869189969802164e+02
2.130219753000000009e-04 4.301928293799650760e+02
2.151521950999999875e-04 4.343381148990683300e+02
2.173037169999999976e-04 4.385231478338835132e+02
2.194767542000000031e-04 4.427483038684159169e+02
2.216715217000000124e-04 4.470139619951837631e+02
2.238882368999999917e-04 4.513205044672678810e+02
2.261271193000000124e-04 4.556683170380599677e+02
2.283883905000000077e-04 4.600577890092113762e+02
2.306722743999999991e-04 4.644893133265325105e+02
2.329789971000000102e-04 4.689632863881944331e+02
2.353087870999999952e-04 4.734801083803760093e+02
2.376618749999999869e-04 4.780401827977678977e+02
2.400384936999999978e-04 4.826439167312708491e+02
2.424388787000000085e-04 4.872917205323483358e+02
2.448632675000000187e-04 4.919840089638142331e+02
2.473119001000000181e-04 4.967212001449443619e+02
2.497850190999999914e-04 5.015037169899604237e+02
2.522828692999999796e-04 5.063319833720732390e+02
2.548056980000000136e-04 5.112064298774178042e+02
2.573537550000000061e-04 5.161274894896022261e+02
2.599272926000000222e-04 5.210955990281906907e+02
2.625265654999999767e-04 5.261112005871885913e+02
2.651518311000000011e-04 5.311747376990844032e+02
2.678033493999999780e-04 5.362866596503018854e+02
2.704813828999999971e-04 5.414474190837269134e+02
2.731861967999999852e-04 5.466574734371910154e+02
2.759180586999999897e-04 5.519172825459986598e+02
2.786772393000000242e-04 5.572273110404004228e+02
2.814640117000000055e-04 5.625880288250868944e+02
2.842786517999999914e-04 5.679999086817163061e+02
2.871214383999999955e-04 5.734634272279037077e+02
2.899926526999999890e-04 5.789790663557042762e+02
2.928925793000000059e-04 5.845473103546464699e+02
2.958215051000000055e-04 5.901686502271825248e+02
2.987797201000000217e-04 5.958435793732376169e+02
3.017675173000000221e-04 6.015725964671776183e+02
3.047851925000000066e-04 6.073562030603357016e+02
3.078330443999999851e-04 6.131949069374744568e+02
3.109113749000000197e-04 6.190892187603244565e+02
3.140204886000000101e-04 6.250396539855615856e+02
3.171606935000000267e-04 6.310467338237970125e+02
3.203323004000000092e-04 6.371109818831147322e+02
3.235356233999999820e-04 6.432329280050281568e+02
3.267709796999999894e-04 6.494131049080186813e+02
3.300386895000000098e-04 6.556520501055126715e+02
3.333390763999999752e-04 6.619503078238616354e+02
3.366724671000000005e-04 6.683084251663838131e+02
3.400391918000000239e-04 6.747269535518491921e+02
3.434395837000000259e-04 6.812064487144784835e+02
3.468739794999999731e-04 6.877474731014171994e+02
3.503427193000000026e-04 6.943505929957671015e+02
3.538461465000000109e-04 7.010163785165864283e+02
3.573846079999999886e-04 7.077454055368687023e+02
3.609584540999999890e-04 7.145382537655643773e+02
3.645680385999999968e-04 7.213955091450526425e+02
3.682137189999999932e-04 7.283177619331650021e+02
3.718958562000000212e-04 7.353056067031832299e+02
3.756148148000000120e-04 7.423596437823247243e+02
3.793709628999999907e-04 7.494804782927524229e+02
3.831646724999999889e-04 7.566687201515750303e+02
3.869963192999999798e-04 7.639249845503419465e+02
3.908662823999999991e-04 7.712498905165589349e+02
3.947749452999999779e-04 7.786440633111616307e+02
3.987226947000000084e-04 7.861081339490202708e+02
4.027099217000000239e-04 7.936427372809620238e+02
4.067370208999999980e-04 8.012485139117490007e+02
4.108043911000000071e-04 8.089261102000784831e+02
4.149124350000000247e-04 8.166761772995931778e+02
4.190615593999999868e-04 8.244993697203979082e+02
4.232521749999999978e-04 8.323963501240060623e+02
4.274846966999999937e-04 8.403677854873812976e+02
4.317595436999999907e-04 8.484143480619283082e+02
4.360771391000000112e-04 8.565367148939975550e+02
4.404379105000000055e-04 8.647355692633688022e+02
4.448422895999999942e-04 8.730115987652732201e+02
4.492907125000000020e-04 8.813654977078664388e+02
4.537836196000000254e-04 8.897979656737437608e+02
4.583214557999999890e-04 8.983097070404470514e+02
4.629046703999999839e-04 9.069014314599581894e+02
4.675337170999999971e-04 9.155738557766779877e+02
4.722090543000000075e-04 9.243277011504582106e+02
4.769311447999999981e-04 9.331636935360966163e+02
4.817004561999999762e-04 9.420825665603043717e+02
4.865174607999999952e-04 9.510850581652437086e+02
4.913826354000000365e-04 9.601719115675176681e+02
4.962964617999999530e-04 9.693438757376635522e+02
5.012594264000000454e-04 9.786017068386380515e+02
5.062720205999999981e-04 9.879461653488490356e+02
5.113347408999999958e-04 9.973780179801333361e+02
5.164480882999999880e-04 1.006898037198263637e+03
5.216125690999999466e-04 1.016507000743452181e+03
5.268286947999999961e-04 1.026205691630352476e+03
5.320969818000000464e-04 1.035994900545530527e+03
5.374179515999999652e-04 1.045875422011509727e+03
5.427921311000000540e-04 1.055848057743231720e+03
5.482200524000000082e-04 1.065913614250584033e+03
5.537022529999999568e-04 1.076072903797389472e+03
5.592392754999999868e-04 1.086326744880899696e+03
5.648316682000000108e-04 1.096675962231797257e+03
5.704799849000000275e-04 1.107121386334698173e+03
5.761847848000000360e-04 1.117663852948659951e+03
5.819466326000000134e-04 1.128304204066169177e+03
5.877660989000000431e-04 1.139043286474658544e+03
5.936437598999999479e-04 1.149881953194990047e+03
5.995801975000000263e-04 1.160821063960949687e+03
6.055759995000000329e-04 1.171861483780764729e+03
6.116317594999999595e-04 1.183004083896090833e+03
6.177480770999999905e-04 1.194249740343530448e+03
6.239255578999999613e-04 1.205599335872609572e+03
6.301648135000000083e-04 1.217053757548305839e+03
6.364664616000000052e-04 1.228613899628014906e+03
6.428311261999999525e-04 1.240280661643574149e+03
6.492594374999999989e-04 1.252054947921765461e+03
6.557520318000000306e-04 1.263937670940779299e+03
6.623095521999999499e-04 1.275929745576279174e+03
6.689326476999999825e-04 1.288032094375841098e+03
6.756219742000000228e-04 1.300245645161482344e+03
6.823781938999999835e-04 1.312571330550165612e+03
6.892019758000000103e-04 1.325010089392283817e+03
6.960939955999999621e-04 1.337562865812668861e+03
7.030549354999999969e-04 1.350230609210594366e+03
7.100854848999999837e-04 1.363014274259773856e+03
7.171863397999999603e-04 1.375914821387855454e+03
7.243582032000000451e-04 1.388933215817434530e+03
7.316017851999999811e-04 1.402070429004534162e+03
7.389178030000000032e-04 1.415327435761640800e+03
7.463069811000000355e-04 1.428705218093659141e+03
7.537700508999999960e-04 1.442204761841450591e+03
7.613077513999999676e-04 1.455827057640822431e+03
7.689208289000000474e-04 1.469573102840505953e+03
7.766100371999999771e-04 1.483443898145694902e+03
7.843761376000000108e-04 1.497440448577033521e+03
7.922198989000000472e-04 1.511563765868091195e+03
8.001420978999999531e-04 1.525814864149909454e+03
8.081435188999999989e-04 1.540194764266454740e+03
8.162249541000000117e-04 1.554704490897648611e+03
8.243872036000000252e-04 1.569345073518360778e+03
8.326310756999999972e-04 1.584117545439415380e+03
8.409573864000000282e-04 1.599022945246078052e+03
8.493669603000000541e-04 1.614062314880076656e+03
8.578606299000000011e-04 1.629236701557579408e+03
8.664392361999999782e-04 1.644547156810204342e+03
8.751036285999999739e-04 1.659994735046539972e+03
8.838546647999999872e-04 1.675580496429106461e+03
8.926932114999999810e-04 1.691305503517899297e+03
9.016201435999999505e-04 1.707170824147352960e+03
9.106363449999999634e-04 1.723177529028870367e+03
9.197427084999999650e-04 1.739326693189305161e+03
9.289401356000000394e-04 1.755619395491467685e+03
9.382295368999999958e-04 1.772056719113619920e+03
9.476118322999999748e-04 1.788639750110990235e+03
9.570879505999999948e-04 1.805369578374765297e+03
9.666588301000000362e-04 1.822247298111581586e+03
9.763254183999999771e-04 1.839274005925549773e+03
9.860886725999999831e-04 1.856450801777241168e+03
9.959495593000000733e-04 1.873778789942679168e+03
1.005909054999999924e-03 1.891259077574854928e+03
1.015968144999999977e-03 1.908892775183220920e+03
1.026127827000000107e-03 1.926680995195208880e+03
1.036389104999999988e-03 1.944624855312689533e+03
1.046752995999999892e-03 1.962725474676019076e+03
1.057220526000000058e-03 1.980983977220498446e+03
1.067792731000000031e-03 1.999401488799406707e+03
1.078470658999999962e-03 2.017979137184001956e+03
1.089255364999999970e-03 2.036718053502004523e+03
1.100147918999999901e-03 2.055619370799111948e+03
1.111149398000000005e-03 2.074684224518495739e+03
1.122260892000000046e-03 2.093913753939283197e+03
1.133483500999999966e-03 2.113309101217570969e+03
1.144818336000000096e-03 2.132871408029958275e+03
1.156266520000000068e-03 2.152601819409508607e+03
1.167829184999999914e-03 2.172501481827768202e+03
1.179507477000000040e-03 2.192571542235778452e+03
1.191302550999999953e-03 2.212813150941042750e+03
1.203215576999999963e-03 2.233227456333085229e+03
1.215247732999999919e-03 2.253815610157893389e+03
1.227400210000000047e-03 2.274578763681959572e+03
1.239674212000000091e-03 2.295518071528238124e+03
1.252070953999999967e-03 2.316634683045243037e+03
1.264591663999999971e-03 2.337929745663510857e+03
1.277237579999999928e-03 2.359404411608521514e+03
1.290009956000000031e-03 2.381059844613627320e+03
1.302910055999999999e-03 2.402897200740266271e+03
1.315939155999999938e-03 2.424917580908000218e+03
1.329098548000000107e-03 2.447122046717834110e+03
1.342389533000000077e-03 2.469511364881605459e+03
1.355813429000000004e-03 2.492086047979022624e+03
1.369371563000000005e-03 2.514847056917228656e+03
1.383065278999999915e-03 2.537796259807116257e+03
1.396895930999999961e-03 2.560935497907883018e+03
1.410864891000000081e-03 2.584265878852013884e+03
1.424973539999999962e-03 2.607788295458420635e+03
1.439223275000000093e-03 2.631503796381755819e+03
1.453615508000000037e-03 2.655413546314359337e+03
1.468151662999999957e-03 2.679518679260919271e+03
1.482833178999999960e-03 2.703820270727783281e+03
1.497661511000000084e-03 2.728319391426354741e+03
1.512638126000000107e-03 2.753017117342475558e+03
1.527764507999999953e-03 2.777914522544012016e+03
1.543042152999999934e-03 2.803012668631967699e+03
1.558472574000000074e-03 2.828312605699478809e+03
1.574057299999999902e-03 2.853815377606250877e+03
1.589797872999999979e-03 2.879522019581088443e+03
1.605695851999999930e-03 2.905433559660375067e+03
1.621752809999999975e-03 2.931551015331614963e+03
1.637970338000000045e-03 2.957875397369388338e+03
1.654350042000000010e-03 2.984407706478888031e+03
1.670893541999999904e-03 3.011148934254910273e+03
1.687602476999999898e-03 3.038100064140845006e+03
1.704478502000000102e-03 3.065262069031198280e+03
1.721523286999999914e-03 3.092635913669070305e+03
1.738738519999999963e-03 3.120222552728174378e+03
1.756125904999999944e-03 3.148022933689806905e+03
1.773687163999999915e-03 3.176037991568402049e+03
1.791424036000000084e-03 3.204268653706482837e+03
1.809338275999999943e-03 3.232715835938701730e+03
1.827431658999999989e-03 3.261380444989313673e+03
1.845705976000000005e-03 3.290263375595209254e+03
1.864163035999999917e-03 3.319365510985410310e+03
1.882804666000000016e-03 3.348687721442582642e+03
1.901632713000000075e-03 3.378230866221018459e+03
1.920649040000000024e-03 3.407995790190172102e+03
1.939855529999999929e-03 3.437983323355165794e+03
1.959254085000000211e-03 3.468194280377294490e+03
1.978846625999999918e-03 3.498629460094533442e+03
1.998635091999999974e-03 3.529289642644567721e+03
2.018621442999999922e-03 3.560175591382771927e+03
2.038807658000000092e-03 3.591288047607771205e+03
2.059195733999999878e-03 3.622627734397395216e+03
2.079787691999999879e-03 3.654195351813735670e+03
2.100585569000000194e-03 3.685991576423646165e+03
2.121591423999999969e-03 3.718017063696223431e+03
2.142807338999999991e-03 3.750272441769368470e+03
2.164235412000000119e-03 3.782758318162716932e+03
2.185877766000000107e-03 3.815475269708252654e+03
2.207736544000000068e-03 3.848423852140197141e+03
2.229813909000000031e-03 3.881604591464105397e+03
2.252112047999999932e-03 3.915017989710806887e+03
2.274633169000000055e-03 3.948664523018421278e+03
2.297379500000000171e-03 3.982544640673372214e+03
2.320353294999999948e-03 4.016658767987353713e+03
2.343556827999999839e-03 4.051007303420365133e+03
2.366992397000000203e-03 4.085590620978180141e+03
2.390662321000000014e-03 4.120409070212348524e+03
2.414568943999999880e-03 4.155462977179187874e+03
2.438714632999999885e-03 4.190752642042305524e+03
2.463101780000000011e-03 4.226278341949569949e+03
2.487732797000000162e-03 4.262040328156143914e+03
2.512610125000000125e-03 4.298038826503973723e+03
2.537736227000000032e-03 4.334274037421797402e+03
2.563113588999999925e-03 4.370746131609683289e+03
2.588744725000000167e-03 4.407455254354491444e+03
2.614632172000000161e-03 4.444401517378459175e+03
2.640778494000000070e-03 4.481585000277686959e+03
2.667186278999999962e-03 4.519005749563150857e+03
2.693858141999999796e-03 4.556663771468279265e+03
2.720796722999999865e-03 4.594559038661880550e+03
2.748004689999999917e-03 4.632691477301788836e+03
2.775484737000000028e-03 4.671060974706779234e+03
2.803239584000000173e-03 4.709667372164142762e+03
2.831271980000000209e-03 4.748510465409188328e+03
2.859584699999999889e-03 4.787590007502205481e+03
2.888180547000000157e-03 4.826905701156553732e+03
2.917062353000000104e-03 4.866457204972090949e+03
2.946232976000000021e-03 4.906244131037698025e+03
2.975695306000000068e-03 4.946266047808252551e+03
3.005452258999999869e-03 4.986522485379062346e+03
3.035506780999999796e-03 5.027012921101035317e+03
3.065861849000000097e-03 5.067736803555398183e+03
3.096520468000000040e-03 5.108693533373923856e+03
3.127485672000000078e-03 5.149882477623766135e+03
3.158760529000000095e-03 5.191302950627668906e+03
3.190348133999999867e-03 5.232954233143760575e+03
3.222251615999999902e-03 5.274835601135220713e+03
3.254474132000000162e-03 5.316946330565230710e+03
3.287018873000000039e-03 5.359285606292998636e+03
3.319889062000000099e-03 5.401852459739470760e+03
3.353087952999999916e-03 5.444645893555914881e+03
3.386618831999999805e-03 5.487664891213814371e+03
3.420485020999999935e-03 5.530908378645305675e+03
3.454689870999999926e-03 5.574375219448229473e+03
3.489236769000000123e-03 5.618064195706346254e+03
3.524129136999999863e-03 5.661974031964065034e+03
3.559370428000000093e-03 5.706103390431503612e+03
3.594964132999999874e-03 5.750450866189532462e+03
3.630913773999999879e-03 5.795014987189785643e+03
3.667222912000000189e-03 5.839794238229382245e+03
3.703895140999999887e-03 5.884787036976201307e+03
3.740934092000000079e-03 5.929991743558769485e+03
3.778343432999999984e-03 5.975406670156156906e+03
3.816126867999999981e-03 6.021030080997976256e+03
3.854288135999999875e-03 6.066860168389650426e+03
3.892831018000000171e-03 6.112895081482093701e+03
3.931759328000000372e-03 6.159132907091919151e+03
3.971076920999999822e-03 6.205571645726719908e+03
4.010787689999999878e-03 6.252209249944628027e+03
4.050895566999999572e-03 6.299043571609917308e+03
4.091404522999999953e-03 6.346072381072775897e+03
4.132318567999999741e-03 6.393293381554155530e+03
4.173641754000000093e-03 6.440704161196306814e+03
4.215378171000000278e-03 6.488302231422347177e+03
4.257531953000000258e-03 6.536085002961532155e+03
4.300107273000000271e-03 6.584049819413872683e+03
4.343108344999999960e-03 6.632193942865304962e+03
4.386539428999999650e-03 6.680514577862414626e+03
4.430404823000000381e-03 6.729008833052868795e+03
4.474708871000000407e-03 6.777673697210689170e+03
4.519455959999999980e-03 6.826506115955386122e+03
4.564650519999999614e-03 6.875503217114412109e+03
4.610297024999999646e-03 6.924662061385974994e+03
4.656399995000000229e-03 6.973978913507280595e+03
4.702963995000000036e-03 7.023449395692789039e+03
4.749993634999999728e-03 7.073069930912917698e+03
4.797493570999999783e-03 7.122838457340959394e+03
4.845468506999999619e-03 7.172752577504003966e+03
