#             Piccolo C0 - Cosmology             
# +--------+--------+--------+--------+---------+
# |  Om0   |   h    |  Ob0   |   ns   | sigma_8 |
# +--------+--------+--------+--------+---------+
# | 0.3158 | 0.6732 | 0.0494 | 0.9661 |  0.8102 |
# +--------+--------+--------+--------+---------+
#        sigma8(z) = 0.8102 for z = 0.0000 
#    sigma8(z)/sigma8 = 1.0000 | G(z) = 1.0000 
# 
#     k [h/Mpc]              P(k) [(Mpc/h)^3]
1.000000000000000048e-04 4.169141296812414907e+02
1.010000000000000020e-04 4.209390226653873697e+02
1.020099999999999940e-04 4.250027271997723233e+02
1.030301000000000014e-04 4.291056159514700994e+02
1.040604010000000001e-04 4.332480656361877891e+02
1.051010050000000026e-04 4.374304562470978794e+02
1.061520150999999953e-04 4.416531714404221702e+02
1.072135352000000051e-04 4.459165987282237893e+02
1.082856706000000067e-04 4.502211289964272964e+02
1.093685272999999968e-04 4.545671566976104145e+02
1.104622125000000052e-04 4.589550801401923650e+02
1.115668347000000048e-04 4.633853015848297332e+02
1.126825029999999989e-04 4.678582275336048042e+02
1.138093279999999980e-04 4.723742679588570468e+02
1.149474212999999955e-04 4.769338363995793770e+02
1.160968954999999940e-04 4.815373500578138533e+02
1.172578644999999937e-04 4.861852307626124343e+02
1.184304430999999995e-04 4.908779041988684071e+02
1.196147475999999966e-04 4.956158002929007580e+02
1.208108950000000054e-04 5.003993524412854299e+02
1.220190039999999960e-04 5.052289984748164215e+02
1.232391939999999875e-04 5.101051803693169973e+02
1.244715860000000112e-04 5.150283440528480696e+02
1.257163018000000034e-04 5.199989399840837905e+02
1.269734649000000127e-04 5.250174227667284867e+02
1.282431994999999874e-04 5.300842513423076525e+02
1.295256314999999880e-04 5.351998887009804093e+02
1.308208877999999901e-04 5.403648024599154951e+02
1.321290967000000123e-04 5.455794645741033264e+02
1.334503876999999978e-04 5.508443515291480708e+02
1.347848915000000045e-04 5.561599442448713262e+02
1.361327404000000079e-04 5.615267280753126897e+02
1.374940678999999894e-04 5.669451929051249408e+02
1.388690085000000081e-04 5.724158328603868995e+02
1.402576986000000014e-04 5.779391471761668981e+02
1.416602756000000110e-04 5.835156401965234636e+02
1.430768783999999917e-04 5.891458208925245117e+02
1.445076471000000123e-04 5.948302021874758339e+02
1.459527235999999884e-04 6.005693018244844552e+02
1.474122508999999991e-04 6.063636429448359877e+02
1.488863734000000041e-04 6.122137537024095764e+02
1.503752370999999891e-04 6.181201672636780131e+02
1.518789894999999883e-04 6.240834213257282954e+02
1.533977793999999925e-04 6.301040587910329123e+02
1.549317571999999916e-04 6.361826273818662685e+02
1.564810746999999917e-04 6.423196800258888288e+02
1.580458855000000079e-04 6.485157749525426425e+02
1.596263443000000019e-04 6.547714755966562734e+02
1.612226078000000091e-04 6.610873507912356217e+02
1.628348338000000116e-04 6.674639740926927516e+02
1.644631821999999882e-04 6.739019246484098176e+02
1.661078140000000006e-04 6.804017875823229815e+02
1.677688920999999885e-04 6.869641531273581450e+02
1.694465811000000046e-04 6.935896168182238171e+02
1.711410469000000038e-04 7.002787792022214717e+02
1.728524573000000096e-04 7.070322468032077268e+02
1.745809819000000002e-04 7.138506323143845975e+02
1.763267916999999971e-04 7.207345537307367067e+02
1.780900596999999866e-04 7.276846346382183128e+02
1.798709602999999982e-04 7.347015043101501988e+02
1.816696698999999994e-04 7.417857977072188760e+02
1.834863665999999886e-04 7.489381557666652043e+02
1.853212301999999955e-04 7.561592254986802573e+02
1.871744424999999875e-04 7.634496599864055497e+02
1.890461869000000124e-04 7.708101184823287895e+02
1.909366488000000016e-04 7.782412653479269693e+02
1.928460152999999990e-04 7.857437715960045352e+02
1.947744755000000133e-04 7.933183146015038574e+02
1.967222202000000030e-04 8.009655781015052298e+02
1.986894424000000103e-04 8.086862516168519051e+02
2.006763367999999997e-04 8.164810311269206977e+02
2.026831001999999872e-04 8.243506187804352976e+02
2.047099311999999978e-04 8.322957231846535251e+02
2.067570304999999994e-04 8.403170596945556099e+02
2.088246008000000059e-04 8.484153498344686568e+02
2.109128467999999963e-04 8.565913219728373633e+02
2.130219753000000009e-04 8.648457110330374462e+02
2.151521950999999875e-04 8.731792585897711660e+02
2.173037169999999976e-04 8.815927130618588308e+02
2.194767542000000031e-04 8.900868297122394779e+02
2.216715217000000124e-04 8.986623704551791434e+02
2.238882368999999917e-04 9.073201037598734047e+02
2.261271193000000124e-04 9.160608051324289818e+02
2.283883905000000077e-04 9.248852572122591482e+02
2.306722743999999991e-04 9.337942499648758030e+02
2.329789971000000102e-04 9.427885802963053266e+02
2.353087870999999952e-04 9.518690527278614582e+02
2.376618749999999869e-04 9.610364784321833440e+02
2.400384936999999978e-04 9.702916758116139135e+02
2.424388787000000085e-04 9.796354698234257512e+02
2.448632675000000187e-04 9.890686942933272121e+02
2.473119001000000181e-04 9.985921897947488333e+02
2.497850190999999914e-04 1.008206806540724756e+03
2.522828692999999796e-04 1.017913396672209956e+03
2.548056980000000136e-04 1.027712825825604341e+03
2.573537550000000061e-04 1.037605964457109849e+03
2.599272926000000222e-04 1.047593690734610391e+03
2.625265654999999767e-04 1.057676893429555093e+03
2.651518311000000011e-04 1.067856464205272914e+03
2.678033493999999780e-04 1.078133306292618045e+03
2.704813828999999971e-04 1.088508329670166631e+03
2.731861967999999852e-04 1.098982453956098425e+03
2.759180586999999897e-04 1.109556603588395092e+03
2.786772393000000242e-04 1.120231712644642130e+03
2.814640117000000055e-04 1.131008725805988206e+03
2.842786517999999914e-04 1.141888593537344832e+03
2.871214383999999955e-04 1.152872274015305948e+03
2.899926526999999890e-04 1.163960736020029799e+03
2.928925793000000059e-04 1.175154953151476093e+03
2.958215051000000055e-04 1.186455912505049582e+03
2.987797201000000217e-04 1.197864605995956708e+03
3.017675173000000221e-04 1.209382036142968218e+03
3.047851925000000066e-04 1.221009211248616566e+03
3.078330443999999851e-04 1.232747152146918779e+03
3.109113749000000197e-04 1.244596885455654729e+03
3.140204886000000101e-04 1.256559447432207207e+03
3.171606935000000267e-04 1.268635885901483334e+03
3.203323004000000092e-04 1.280827253508192143e+03
3.235356233999999820e-04 1.293134615428527241e+03
3.267709796999999894e-04 1.305559042622444622e+03
3.300386895000000098e-04 1.318101615689503205e+03
3.333390763999999752e-04 1.330763428724707865e+03
3.366724671000000005e-04 1.343545581606824726e+03
3.400391918000000239e-04 1.356449182890263501e+03
3.434395837000000259e-04 1.369475349805077030e+03
3.468739794999999731e-04 1.382625213076763430e+03
3.503427193000000026e-04 1.395899911142503242e+03
3.538461465000000109e-04 1.409300590151159895e+03
3.573846079999999886e-04 1.422828407819121367e+03
3.609584540999999890e-04 1.436484529574458520e+03
3.645680385999999968e-04 1.450270133376726108e+03
3.682137189999999932e-04 1.464186405861123376e+03
3.718958562000000212e-04 1.478234542338491565e+03
3.756148148000000120e-04 1.492415749687196922e+03
3.793709628999999907e-04 1.506731244425209070e+03
3.831646724999999889e-04 1.521182252710100784e+03
3.869963192999999798e-04 1.535770011303009369e+03
3.908662823999999991e-04 1.550495764676754789e+03
3.947749452999999779e-04 1.565360769835641577e+03
3.987226947000000084e-04 1.580366295351498366e+03
4.027099217000000239e-04 1.595513617507836898e+03
4.067370208999999980e-04 1.610804024155692787e+03
4.108043911000000071e-04 1.626238814713627107e+03
4.149124350000000247e-04 1.641819298239802947e+03
4.190615593999999868e-04 1.657546790540106485e+03
4.232521749999999978e-04 1.673422623807750597e+03
4.274846966999999937e-04 1.689448138911590377e+03
4.317595436999999907e-04 1.705624687324045226e+03
4.360771391000000112e-04 1.721953630157138377e+03
4.404379105000000055e-04 1.738436341054377408e+03
4.448422895999999942e-04 1.755074202334912798e+03
4.492907125000000020e-04 1.771868609813341209e+03
4.537836196000000254e-04 1.788820969907821564e+03
4.583214557999999890e-04 1.805932698676117525e+03
4.629046703999999839e-04 1.823205222779556607e+03
4.675337170999999971e-04 1.840639983338870934e+03
4.722090543000000075e-04 1.858238430150436670e+03
4.769311447999999981e-04 1.876002022650232675e+03
4.817004561999999762e-04 1.893932235697604028e+03
4.865174607999999952e-04 1.912030552827539395e+03
4.913826354000000365e-04 1.930298468178590838e+03
4.962964617999999530e-04 1.948737487456834515e+03
5.012594264000000454e-04 1.967349130827752560e+03
5.062720205999999981e-04 1.986134927132470011e+03
5.113347408999999958e-04 2.005096417743596021e+03
5.164480882999999880e-04 2.024235155601264978e+03
5.216125690999999466e-04 2.043552704249173985e+03
5.268286947999999961e-04 2.063050637834585814e+03
5.320969818000000464e-04 2.082730545928126958e+03
5.374179515999999652e-04 2.102594025812108157e+03
5.427921311000000540e-04 2.122642689228245217e+03
5.482200524000000082e-04 2.142878157557856866e+03
5.537022529999999568e-04 2.163302063749787067e+03
5.592392754999999868e-04 2.183916053284362988e+03
5.648316682000000108e-04 2.204721784173398646e+03
5.704799849000000275e-04 2.225720925996230108e+03
5.761847848000000360e-04 2.246915158935758882e+03
5.819466326000000134e-04 2.268306175706369686e+03
5.877660989000000431e-04 2.289895678662052887e+03
5.936437598999999479e-04 2.311685382688281152e+03
5.995801975000000263e-04 2.333677016165973328e+03
6.055759995000000329e-04 2.355872318079612796e+03
6.116317594999999595e-04 2.378273039945166147e+03
6.177480770999999905e-04 2.400880942918204710e+03
6.239255578999999613e-04 2.423697801649743724e+03
6.301648135000000083e-04 2.446725399466442923e+03
6.364664616000000052e-04 2.469965534154365741e+03
6.428311261999999525e-04 2.493420014103141511e+03
6.492594374999999989e-04 2.517090657342001577e+03
6.557520318000000306e-04 2.540979298287503752e+03
6.623095521999999499e-04 2.565087776176008447e+03
6.689326476999999825e-04 2.589417945667240019e+03
6.756219742000000228e-04 2.613971672024488271e+03
6.823781938999999835e-04 2.638750830150645925e+03
6.892019758000000103e-04 2.663757307480091185e+03
6.960939955999999621e-04 2.688993002050764972e+03
7.030549354999999969e-04 2.714459822504172280e+03
7.100854848999999837e-04 2.740159688085383095e+03
7.171863397999999603e-04 2.766094529606989909e+03
7.243582032000000451e-04 2.792266287521191316e+03
7.316017851999999811e-04 2.818676914811667757e+03
7.389178030000000032e-04 2.845328371209824127e+03
7.463069811000000355e-04 2.872222630906469931e+03
7.537700508999999960e-04 2.899361675804097558e+03
7.613077513999999676e-04 2.926747497444802775e+03
7.689208289000000474e-04 2.954382100866126621e+03
7.766100371999999771e-04 2.982267497853332770e+03
7.843761376000000108e-04 3.010405708867327576e+03
7.922198989000000472e-04 3.038798767864463116e+03
8.001420978999999531e-04 3.067448713620892249e+03
8.081435188999999989e-04 3.096357598408214471e+03
8.162249541000000117e-04 3.125527482209709433e+03
8.243872036000000252e-04 3.154960434648263799e+03
8.326310756999999972e-04 3.184658533058443936e+03
8.409573864000000282e-04 3.214623865378381652e+03
8.493669603000000541e-04 3.244858526293931391e+03
8.578606299000000011e-04 3.275364621094511676e+03
8.664392361999999782e-04 3.306144263745181888e+03
8.751036285999999739e-04 3.337199573994767889e+03
8.838546647999999872e-04 3.368532683159615317e+03
8.926932114999999810e-04 3.400145727375874685e+03
9.016201435999999505e-04 3.432040853383258764e+03
9.106363449999999634e-04 3.464220213705243168e+03
9.197427084999999650e-04 3.496685969540946644e+03
9.289401356000000394e-04 3.529440289801170820e+03
9.382295368999999958e-04 3.562485352072360911e+03
9.476118322999999748e-04 3.595823339724722246e+03
9.570879505999999948e-04 3.629456443840146221e+03
9.666588301000000362e-04 3.663386864176164636e+03
9.763254183999999771e-04 3.697616805310113250e+03
9.860886725999999831e-04 3.732148478567048187e+03
9.959495593000000733e-04 3.766984103947670519e+03
1.005909054999999924e-03 3.802125907236442345e+03
1.015968144999999977e-03 3.837576120965549308e+03
1.026127827000000107e-03 3.873336981523017585e+03
1.036389104999999988e-03 3.909410735900436975e+03
1.046752995999999892e-03 3.945799633981280294e+03
1.057220526000000058e-03 3.982505935288621913e+03
1.067792731000000031e-03 4.019531903201377190e+03
1.078470658999999962e-03 4.056879804954305200e+03
1.089255364999999970e-03 4.094551914529886744e+03
1.100147918999999901e-03 4.132550509766442701e+03
1.111149398000000005e-03 4.170877873322096093e+03
1.122260892000000046e-03 4.209536295566654189e+03
1.133483500999999966e-03 4.248528072653686650e+03
1.144818336000000096e-03 4.287855499772799703e+03
1.156266520000000068e-03 4.327520878861324491e+03
1.167829184999999914e-03 4.367526514748473346e+03
1.179507477000000040e-03 4.407874713227418397e+03
1.191302550999999953e-03 4.448567786839053952e+03
1.203215576999999963e-03 4.489608044268432423e+03
1.215247732999999919e-03 4.530997800948331133e+03
1.227400210000000047e-03 4.572739371347563974e+03
1.239674212000000091e-03 4.614835076682669751e+03
1.252070953999999967e-03 4.657287227566622278e+03
1.264591663999999971e-03 4.700098130756554383e+03
1.277237579999999928e-03 4.743270102649200453e+03
1.290009956000000031e-03 4.786805482776346253e+03
1.302910055999999999e-03 4.830706595246409961e+03
1.315939155999999938e-03 4.874975653312370923e+03
1.329098548000000107e-03 4.919614791182456429e+03
1.342389533000000077e-03 4.964625550229276996e+03
1.355813429000000004e-03 5.010008960926453256e+03
1.369371563000000005e-03 5.055766955050538854e+03
1.383065278999999915e-03 5.101903288191080719e+03
1.396895930999999961e-03 5.148421661955849231e+03
1.410864891000000081e-03 5.195324303093265371e+03
1.424973539999999962e-03 5.242613006497513197e+03
1.439223275000000093e-03 5.290289880349891973e+03
1.453615508000000037e-03 5.338357266110105229e+03
1.468151662999999957e-03 5.386817443544397975e+03
1.482833178999999960e-03 5.435672574815847838e+03
1.497661511000000084e-03 5.484924812447930890e+03
1.512638126000000107e-03 5.534576319567685459e+03
1.527764507999999953e-03 5.584629255446311618e+03
1.543042152999999934e-03 5.635085754292035745e+03
1.558472574000000074e-03 5.685947927178039208e+03
1.574057299999999902e-03 5.737217872646016986e+03
1.589797872999999979e-03 5.788897671886379612e+03
1.605695851999999930e-03 5.840989391630128921e+03
1.621752809999999975e-03 5.893495077401141316e+03
1.637970338000000045e-03 5.946416761227848838e+03
1.654350042000000010e-03 5.999756454895514253e+03
1.670893541999999904e-03 6.053516151874154275e+03
1.687602476999999898e-03 6.107697829246460060e+03
1.704478502000000102e-03 6.162303442887993697e+03
1.721523286999999914e-03 6.217334932286990806e+03
1.738738519999999963e-03 6.272794216688522283e+03
1.756125904999999944e-03 6.328683200878253047e+03
1.773687163999999915e-03 6.385003764578875234e+03
1.791424036000000084e-03 6.441757772089719765e+03
1.809338275999999943e-03 6.498947064575066179e+03
1.827431658999999989e-03 6.556573464883948873e+03
1.845705976000000005e-03 6.614638771766390164e+03
1.864163035999999917e-03 6.673144760837370086e+03
1.882804666000000016e-03 6.732093181684932460e+03
1.901632713000000075e-03 6.791485761726035889e+03
1.920649040000000024e-03 6.851324199458827934e+03
1.939855529999999929e-03 6.911610163498687143e+03
1.959254085000000211e-03 6.972345291614256894e+03
1.978846625999999918e-03 7.033531189763491966e+03
1.998635091999999974e-03 7.095169426309890696e+03
2.018621442999999922e-03 7.157261535878340510e+03
2.038807658000000092e-03 7.219809008751552938e+03
2.059195733999999878e-03 7.282813298581743766e+03
2.079787691999999879e-03 7.346275812751035119e+03
2.100585569000000194e-03 7.410197911407487481e+03
2.121591423999999969e-03 7.474580912284910482e+03
2.142807338999999991e-03 7.539426078171368317e+03
2.164235412000000119e-03 7.604734630404632298e+03
2.185877766000000107e-03 7.670507728629011581e+03
2.207736544000000068e-03 7.736746490074561734e+03
2.229813909000000031e-03 7.803451972205788479e+03
2.252112047999999932e-03 7.870625184289189747e+03
2.274633169000000055e-03 7.938267083537395592e+03
2.297379500000000171e-03 8.006378573181262254e+03
2.320353294999999948e-03 8.074960508253622720e+03
2.343556827999999839e-03 8.144013689805537069e+03
2.366992397000000203e-03 8.213538869726080520e+03
2.390662321000000014e-03 8.283536750742352524e+03
2.414568943999999880e-03 8.354007988347397259e+03
2.438714632999999885e-03 8.424953185980395574e+03
2.463101780000000011e-03 8.496372900810434658e+03
2.487732797000000162e-03 8.568267637952742007e+03
2.512610125000000125e-03 8.640637851432642492e+03
2.537736227000000032e-03 8.713483944185569271e+03
2.563113588999999925e-03 8.786806259381404743e+03
2.588744725000000167e-03 8.860605089100139594e+03
2.614632172000000161e-03 8.934880657944535415e+03
2.640778494000000070e-03 9.009633125932012263e+03
2.667186278999999962e-03 9.084862586566725440e+03
2.693858141999999796e-03 9.160569052380158610e+03
2.720796722999999865e-03 9.236752468426569976e+03
2.748004689999999917e-03 9.313412686256066081e+03
2.775484737000000028e-03 9.390549479337965749e+03
2.803239584000000173e-03 9.468162528601385930e+03
2.831271980000000209e-03 9.546251423399218766e+03
2.859584699999999889e-03 9.624815667291877617e+03
2.888180547000000157e-03 9.703854662623945842e+03
2.917062353000000104e-03 9.783367723055647730e+03
2.946232976000000021e-03 9.863354068743054086e+03
2.975695306000000068e-03 9.943812832121844622e+03
3.005452258999999869e-03 1.002474306851087022e+04
3.035506780999999796e-03 1.010614372719334460e+04
3.065861849000000097e-03 1.018801369961485580e+04
3.096520468000000040e-03 1.027035178082495804e+04
3.127485672000000078e-03 1.035315669839598377e+04
3.158760529000000095e-03 1.043642707386462098e+04
3.190348133999999867e-03 1.052016146129033768e+04
3.222251615999999902e-03 1.060435840509299487e+04
3.254474132000000162e-03 1.068901644969245353e+04
3.287018873000000039e-03 1.077413395635610868e+04
3.319889062000000099e-03 1.085970897788404181e+04
3.353087952999999916e-03 1.094573950923871234e+04
3.386618831999999805e-03 1.103222350682416254e+04
3.420485020999999935e-03 1.111915881136919415e+04
3.454689870999999926e-03 1.120654313828776685e+04
3.489236769000000123e-03 1.129437403912057380e+04
3.524129136999999863e-03 1.138264894973306582e+04
3.559370428000000093e-03 1.147136518067585166e+04
3.594964132999999874e-03 1.156051990754508370e+04
3.630913773999999879e-03 1.165011017098247248e+04
3.667222912000000189e-03 1.174013292487328908e+04
3.703895140999999887e-03 1.183058498814836094e+04
3.740934092000000079e-03 1.192146306406326767e+04
3.778343432999999984e-03 1.201276375947755514e+04
3.816126867999999981e-03 1.210448358485473545e+04
3.854288135999999875e-03 1.219661890606426459e+04
3.892831018000000171e-03 1.228916600221916815e+04
3.931759328000000372e-03 1.238212102711762236e+04
3.971076920999999822e-03 1.247547996104494450e+04
4.010787689999999878e-03 1.256923868789041080e+04
4.050895566999999572e-03 1.266339288911163021e+04
4.091404522999999953e-03 1.275793808229293973e+04
4.132318567999999741e-03 1.285286965006423634e+04
4.173641754000000093e-03 1.294818274370492873e+04
4.215378171000000278e-03 1.304387236026076789e+04
4.257531953000000258e-03 1.313993329434583029e+04
4.300107273000000271e-03 1.323636020561973965e+04
4.343108344999999960e-03 1.333314758986886227e+04
4.386539428999999650e-03 1.343028982720432759e+04
4.430404823000000381e-03 1.352778110494518114e+04
4.474708871000000407e-03 1.362561536942038583e+04
4.519455959999999980e-03 1.372378648020247419e+04
4.564650519999999614e-03 1.382228866316891254e+04
4.610297024999999646e-03 1.392111600924271625e+04
4.656399995000000229e-03 1.402026100917271287e+04
4.702963995000000036e-03 1.411971486200084473e+04
4.749993634999999728e-03 1.421947037658286172e+04
4.797493570999999783e-03 1.431952340788922447e+04
4.845468506999999619e-03 1.441986913611815544e+04
