#             Piccolo C0 - Cosmology             
# +--------+--------+--------+--------+---------+
# |  Om0   |   h    |  Ob0   |   ns   | sigma_8 |
# +--------+--------+--------+--------+---------+
# | 0.3158 | 0.6732 | 0.0494 | 0.9661 |  0.8102 |
# +--------+--------+--------+--------+---------+
#        sigma8(z) = 0.3722 for z = 1.7091 
#    sigma8(z)/sigma8 = 0.4595 | G(z) = 0.4595 
# 
#     k [h/Mpc]              P(k) [(Mpc/h)^3]
1.000000000000000048e-04 8.800966176970936772e+01
1.010000000000000020e-04 8.885930788380193235e+01
1.020099999999999940e-04 8.971714703134222191e+01
1.030301000000000014e-04 9.058325788153514679e+01
1.040604010000000001e-04 9.145771995824333089e+01
1.051010050000000026e-04 9.234061347719514856e+01
1.061520150999999953e-04 9.323201942738069192e+01
1.072135352000000051e-04 9.413201961174971188e+01
1.082856706000000067e-04 9.504069654546677270e+01
1.093685272999999968e-04 9.595813349660909353e+01
1.104622125000000052e-04 9.688441454721363755e+01
1.115668347000000048e-04 9.781962461362600436e+01
1.126825029999999989e-04 9.876384950754751912e+01
1.138093279999999980e-04 9.971717577324319848e+01
1.149474212999999955e-04 1.006796907078908276e+02
1.160968954999999940e-04 1.016514823819298385e+02
1.172578644999999937e-04 1.026326398425513702e+02
1.184304430999999995e-04 1.036232529509062203e+02
1.196147475999999966e-04 1.046234124635008698e+02
1.208108950000000054e-04 1.056332098694054906e+02
1.220190039999999960e-04 1.066527375937439928e+02
1.232391939999999875e-04 1.076820889366468776e+02
1.244715860000000112e-04 1.087213580325534252e+02
1.257163018000000034e-04 1.097706399723054176e+02
1.269734649000000127e-04 1.108300307217514984e+02
1.282431994999999874e-04 1.118996271624448440e+02
1.295256314999999880e-04 1.129795270305963584e+02
1.308208877999999901e-04 1.140698290391685816e+02
1.321290967000000123e-04 1.151706328168286859e+02
1.334503876999999978e-04 1.162820389486465587e+02
1.347848915000000045e-04 1.174041489557456686e+02
1.361327404000000079e-04 1.185370652953032078e+02
1.374940678999999894e-04 1.196808913808989274e+02
1.388690085000000081e-04 1.208357315214683467e+02
1.402576986000000014e-04 1.220016911044435091e+02
1.416602756000000110e-04 1.231788765957531098e+02
1.430768783999999917e-04 1.243673954380774234e+02
1.445076471000000123e-04 1.255673559084055171e+02
1.459527235999999884e-04 1.267788673011759357e+02
1.474122508999999991e-04 1.280020400503709652e+02
1.488863734000000041e-04 1.292369856481204238e+02
1.503752370999999891e-04 1.304838166447016476e+02
1.518789894999999883e-04 1.317426465467948162e+02
1.533977793999999925e-04 1.330135899599255254e+02
1.549317571999999916e-04 1.342967625070690758e+02
1.564810746999999917e-04 1.355922809100464121e+02
1.580458855000000079e-04 1.369002630098729298e+02
1.596263443000000019e-04 1.382208277464097819e+02
1.612226078000000091e-04 1.395540951990615213e+02
1.628348338000000116e-04 1.409001864443334568e+02
1.644631821999999882e-04 1.422592237389724517e+02
1.661078140000000006e-04 1.436313306013628903e+02
1.677688920999999885e-04 1.450166316283856816e+02
1.694465811000000046e-04 1.464152525361164976e+02
1.711410469000000038e-04 1.478273200987783866e+02
1.728524573000000096e-04 1.492529623522322026e+02
1.745809819000000002e-04 1.506923086346740206e+02
1.763267916999999971e-04 1.521454894034947358e+02
1.780900596999999866e-04 1.536126362963266843e+02
1.798709602999999982e-04 1.550938821513928474e+02
1.816696698999999994e-04 1.565893610075066817e+02
1.834863665999999886e-04 1.580992081651192223e+02
1.853212301999999955e-04 1.596235602066680030e+02
1.871744424999999875e-04 1.611625549965771143e+02
1.890461869000000124e-04 1.627163317016062081e+02
1.909366488000000016e-04 1.642850305670113471e+02
1.928460152999999990e-04 1.658687932421292999e+02
1.947744755000000133e-04 1.674677627193302669e+02
1.967222202000000030e-04 1.690820833340178524e+02
1.986894424000000103e-04 1.707119006425353973e+02
2.006763367999999997e-04 1.723573615646085386e+02
2.026831001999999872e-04 1.740186143222985606e+02
2.047099311999999978e-04 1.756958085010492141e+02
2.067570304999999994e-04 1.773890951107337060e+02
2.088246008000000059e-04 1.790986264635608336e+02
2.109128467999999963e-04 1.808245563165177145e+02
2.130219753000000009e-04 1.825670398103231094e+02
2.151521950999999875e-04 1.843262334897762003e+02
2.173037169999999976e-04 1.861022953444545465e+02
2.194767542000000031e-04 1.878953848087143115e+02
2.216715217000000124e-04 1.897056627209921373e+02
2.238882368999999917e-04 1.915332913034559965e+02
2.261271193000000124e-04 1.933784342637505063e+02
2.283883905000000077e-04 1.952412568153456220e+02
2.306722743999999991e-04 1.971219257182347064e+02
2.329789971000000102e-04 1.990206091975386471e+02
2.353087870999999952e-04 2.009374770859487569e+02
2.376618749999999869e-04 2.028727006202366852e+02
2.400384936999999978e-04 2.048264525633487096e+02
2.424388787000000085e-04 2.067989070619624670e+02
2.448632675000000187e-04 2.087902401348629269e+02
2.473119001000000181e-04 2.108006292252645721e+02
2.497850190999999914e-04 2.128302538112810964e+02
2.522828692999999796e-04 2.148792937780060299e+02
2.548056980000000136e-04 2.169479318593919288e+02
2.573537550000000061e-04 2.190363518068409121e+02
2.599272926000000222e-04 2.211447389996744448e+02
2.625265654999999767e-04 2.232732810556033201e+02
2.651518311000000011e-04 2.254221662028078867e+02
2.678033493999999780e-04 2.275915851113478254e+02
2.704813828999999971e-04 2.297817298757121591e+02
2.731861967999999852e-04 2.319927946252891218e+02
2.759180586999999897e-04 2.342249745069166806e+02
2.786772393000000242e-04 2.364784667023320424e+02
2.814640117000000055e-04 2.387534706316614290e+02
2.842786517999999914e-04 2.410501869359708280e+02
2.871214383999999955e-04 2.433688178842454874e+02
2.899926526999999890e-04 2.457095679838598983e+02
2.928925793000000059e-04 2.480726427596381143e+02
2.958215051000000055e-04 2.504582505852631868e+02
2.987797201000000217e-04 2.528666008518677302e+02
3.017675173000000221e-04 2.552979051889736581e+02
3.047851925000000066e-04 2.577523764470422520e+02
3.078330443999999851e-04 2.602302301219039009e+02
3.109113749000000197e-04 2.627316829303287022e+02
3.140204886000000101e-04 2.652569536239857371e+02
3.171606935000000267e-04 2.678062633964233328e+02
3.203323004000000092e-04 2.703798344586393796e+02
3.235356233999999820e-04 2.729778916670008471e+02
3.267709796999999894e-04 2.756006610988142143e+02
3.300386895000000098e-04 2.782483708662851996e+02
3.333390763999999752e-04 2.809212519304786042e+02
3.366724671000000005e-04 2.836195364733985684e+02
3.400391918000000239e-04 2.863434585084586388e+02
3.434395837000000259e-04 2.890932538804817682e+02
3.468739794999999731e-04 2.918691612831497650e+02
3.503427193000000026e-04 2.946714210380638406e+02
3.538461465000000109e-04 2.975002750947446089e+02
3.573846079999999886e-04 3.003559678445918735e+02
3.609584540999999890e-04 3.032387453069246703e+02
3.645680385999999968e-04 3.061488561464311715e+02
3.682137189999999932e-04 3.090865508592088986e+02
3.718958562000000212e-04 3.120520817727646090e+02
3.756148148000000120e-04 3.150457036564841928e+02
3.793709628999999907e-04 3.180676733146528363e+02
3.831646724999999889e-04 3.211182495864549082e+02
3.869963192999999798e-04 3.241976935494639065e+02
3.908662823999999991e-04 3.273062679091728455e+02
3.947749452999999779e-04 3.304442380164438191e+02
3.987226947000000084e-04 3.336118716640177126e+02
4.027099217000000239e-04 3.368094382725551554e+02
4.067370208999999980e-04 3.400372097045955684e+02
4.108043911000000071e-04 3.432954602645579030e+02
4.149124350000000247e-04 3.465844662917598384e+02
4.190615593999999868e-04 3.499045055499488512e+02
4.232521749999999978e-04 3.532558592622011133e+02
4.274846966999999937e-04 3.566388104830020325e+02
4.317595436999999907e-04 3.600536445052262025e+02
4.360771391000000112e-04 3.635006486566475701e+02
4.404379105000000055e-04 3.669801129104089341e+02
4.448422895999999942e-04 3.704923290710624428e+02
4.492907125000000020e-04 3.740375917920194979e+02
4.537836196000000254e-04 3.776161979650802323e+02
4.583214557999999890e-04 3.812284465169443024e+02
4.629046703999999839e-04 3.848746386127005508e+02
4.675337170999999971e-04 3.885550784697864515e+02
4.722090543000000075e-04 3.922700721370490555e+02
4.769311447999999981e-04 3.960199276982344827e+02
4.817004561999999762e-04 3.998049564929277722e+02
4.865174607999999952e-04 4.036254716921232557e+02
4.913826354000000365e-04 4.074817887052045080e+02
4.962964617999999530e-04 4.113742253834339522e+02
5.012594264000000454e-04 4.153031026304232114e+02
5.062720205999999981e-04 4.192687431811930310e+02
5.113347408999999958e-04 4.232714724161331219e+02
5.164480882999999880e-04 4.273116181575125552e+02
5.216125690999999466e-04 4.313895104659891899e+02
5.268286947999999961e-04 4.355054816406105829e+02
5.320969818000000464e-04 4.396598672362625280e+02
5.374179515999999652e-04 4.438530044357506199e+02
5.427921311000000540e-04 4.480852334742291987e+02
5.482200524000000082e-04 4.523568966217517300e+02
5.537022529999999568e-04 4.566683385902509826e+02
5.592392754999999868e-04 4.610199067370285206e+02
5.648316682000000108e-04 4.654119510647552147e+02
5.704799849000000275e-04 4.698448240179807840e+02
5.761847848000000360e-04 4.743188802796443042e+02
5.819466326000000134e-04 4.788344771780536462e+02
5.877660989000000431e-04 4.833919740764163180e+02
5.936437598999999479e-04 4.879917329833083386e+02
5.995801975000000263e-04 4.926341187561649804e+02
6.055759995000000329e-04 4.973194984908108154e+02
6.116317594999999595e-04 5.020482419284390971e+02
6.177480770999999905e-04 5.068207208451426027e+02
6.239255578999999613e-04 5.116373098658729077e+02
6.301648135000000083e-04 5.164983854469910511e+02
6.364664616000000052e-04 5.214043270972066466e+02
6.428311261999999525e-04 5.263555165636188349e+02
6.492594374999999989e-04 5.313523376282258823e+02
6.557520318000000306e-04 5.363951775323546372e+02
6.623095521999999499e-04 5.414844245347818514e+02
6.689326476999999825e-04 5.466204701501227419e+02
6.756219742000000228e-04 5.518037081313818817e+02
6.823781938999999835e-04 5.570345342664630834e+02
6.892019758000000103e-04 5.623133469886392959e+02
6.960939955999999621e-04 5.676405469695724832e+02
7.030549354999999969e-04 5.730165371193137389e+02
7.100854848999999837e-04 5.784417225863035128e+02
7.171863397999999603e-04 5.839165109608610464e+02
7.243582032000000451e-04 5.894413118682053891e+02
7.316017851999999811e-04 5.950165375789238169e+02
7.389178030000000032e-04 6.006426017880339714e+02
7.463069811000000355e-04 6.063199212429016143e+02
7.537700508999999960e-04 6.120489143188123080e+02
7.613077513999999676e-04 6.178300014259506270e+02
7.689208289000000474e-04 6.236636058233603990e+02
7.766100371999999771e-04 6.295501521945147942e+02
7.843761376000000108e-04 6.354900670542961052e+02
7.922198989000000472e-04 6.414837797664458776e+02
8.001420978999999531e-04 6.475317207121548790e+02
8.081435188999999989e-04 6.536343231214735852e+02
8.162249541000000117e-04 6.597920218523707945e+02
8.243872036000000252e-04 6.660052537977155680e+02
8.326310756999999972e-04 6.722744574782956306e+02
8.409573864000000282e-04 6.786000736532884048e+02
8.493669603000000541e-04 6.849825445063003144e+02
8.578606299000000011e-04 6.914223144593275947e+02
8.664392361999999782e-04 6.979198297657748071e+02
8.751036285999999739e-04 7.044755378999873301e+02
8.838546647999999872e-04 7.110898887781885378e+02
8.926932114999999810e-04 7.177633333340520494e+02
9.016201435999999505e-04 7.244963247396403858e+02
9.106363449999999634e-04 7.312893173879557480e+02
9.197427084999999650e-04 7.381427675034095728e+02
9.289401356000000394e-04 7.450571329383327566e+02
9.382295368999999958e-04 7.520328733764656590e+02
9.476118322999999748e-04 7.590704497224876377e+02
9.570879505999999948e-04 7.661703245089983056e+02
9.666588301000000362e-04 7.733329621000058296e+02
9.763254183999999771e-04 7.805588278769686212e+02
9.860886725999999831e-04 7.878483886457738663e+02
9.959495593000000733e-04 7.952021130437186685e+02
1.005909054999999924e-03 8.026204709290393566e+02
1.015968144999999977e-03 8.101039335844020570e+02
1.026127827000000107e-03 8.176529731064323414e+02
1.036389104999999988e-03 8.252680638301446834e+02
1.046752995999999892e-03 8.329496807010241355e+02
1.057220526000000058e-03 8.406983006994543075e+02
1.067792731000000031e-03 8.485144016197784822e+02
1.078470658999999962e-03 8.563984620703001838e+02
1.089255364999999970e-03 8.643509620837520515e+02
1.100147918999999901e-03 8.723723825068263977e+02
1.111149398000000005e-03 8.804632052036650975e+02
1.122260892000000046e-03 8.886239136663297131e+02
1.133483500999999966e-03 8.968549926078214867e+02
1.144818336000000096e-03 9.051569265376509748e+02
1.156266520000000068e-03 9.135302013897588722e+02
1.167829184999999914e-03 9.219753037085554297e+02
1.179507477000000040e-03 9.304927202419410150e+02
1.191302550999999953e-03 9.390829391622451112e+02
1.203215576999999963e-03 9.477464478278376419e+02
1.215247732999999919e-03 9.564837350215183278e+02
1.227400210000000047e-03 9.652952893225965454e+02
1.239674212000000091e-03 9.741816007348112407e+02
1.252070953999999967e-03 9.831431570235124582e+02
1.264591663999999971e-03 9.921804451400903417e+02
1.277237579999999928e-03 1.001293954070833934e+03
1.290009956000000031e-03 1.010484177685791110e+03
1.302910055999999999e-03 1.019751606599170259e+03
1.315939155999999938e-03 1.029096708023839483e+03
1.329098548000000107e-03 1.038519932486491598e+03
1.342389533000000077e-03 1.048021605367517168e+03
1.355813429000000004e-03 1.057601944197645253e+03
1.369371563000000005e-03 1.067261356770685552e+03
1.383065278999999915e-03 1.077000635883384803e+03
1.396895930999999961e-03 1.086820562937055001e+03
1.410864891000000081e-03 1.096721607993422140e+03
1.424973539999999962e-03 1.106704149950726332e+03
1.439223275000000093e-03 1.116768633841433257e+03
1.453615508000000037e-03 1.126915553942569886e+03
1.468151662999999957e-03 1.137145391507809336e+03
1.482833178999999960e-03 1.147458602965052251e+03
1.497661511000000084e-03 1.157855642707301058e+03
1.512638126000000107e-03 1.168336967365946975e+03
1.527764507999999953e-03 1.178903032758422114e+03
1.543042152999999934e-03 1.189554289411419404e+03
1.558472574000000074e-03 1.200291182967874647e+03
1.574057299999999902e-03 1.211114156425353940e+03
1.589797872999999979e-03 1.222023649118605363e+03
1.605695851999999930e-03 1.233020097330027511e+03
1.621752809999999975e-03 1.244103932865240722e+03
1.637970338000000045e-03 1.255275584681006876e+03
1.654350042000000010e-03 1.266535477460799029e+03
1.670893541999999904e-03 1.277884032021781877e+03
1.687602476999999898e-03 1.289321665721790851e+03
1.704478502000000102e-03 1.300848791441883805e+03
1.721523286999999914e-03 1.312465818603789103e+03
1.738738519999999963e-03 1.324173152355947423e+03
1.756125904999999944e-03 1.335971194794450412e+03
1.773687163999999915e-03 1.347860342724650991e+03
1.791424036000000084e-03 1.359840989696064298e+03
1.809338275999999943e-03 1.371913524374446524e+03
1.827431658999999989e-03 1.384078331559245726e+03
1.845705976000000005e-03 1.396335790962660894e+03
1.864163035999999917e-03 1.408686277413134803e+03
1.882804666000000016e-03 1.421130160244880244e+03
1.901632713000000075e-03 1.433667804111842315e+03
1.920649040000000024e-03 1.446299567563268965e+03
1.939855529999999929e-03 1.459025802840220194e+03
1.959254085000000211e-03 1.471846855672078163e+03
1.978846625999999918e-03 1.484763065073057760e+03
1.998635091999999974e-03 1.497774762121266349e+03
2.018621442999999922e-03 1.510882270772664469e+03
2.038807658000000092e-03 1.524085905622676137e+03
2.059195733999999878e-03 1.537385973534107507e+03
2.079787691999999879e-03 1.550782771602249568e+03
2.100585569000000194e-03 1.564276586951385298e+03
2.121591423999999969e-03 1.577867697752242975e+03
2.142807338999999991e-03 1.591556370576623522e+03
2.164235412000000119e-03 1.605342863246261459e+03
2.185877766000000107e-03 1.619227420559536768e+03
2.207736544000000068e-03 1.633210278361272913e+03
2.229813909000000031e-03 1.647291659879916097e+03
2.252112047999999932e-03 1.661471778169418940e+03
2.274633169000000055e-03 1.675750835295275692e+03
2.297379500000000171e-03 1.690129021927546773e+03
2.320353294999999948e-03 1.704606518561794928e+03
2.343556827999999839e-03 1.719183494298148162e+03
2.366992397000000203e-03 1.733860107858747597e+03
2.390662321000000014e-03 1.748636507587748383e+03
2.414568943999999880e-03 1.763512831858299705e+03
2.438714632999999885e-03 1.778489208055093968e+03
2.463101780000000011e-03 1.793565753795308183e+03
2.487732797000000162e-03 1.808742575707663036e+03
2.512610125000000125e-03 1.824019769635912553e+03
2.537736227000000032e-03 1.839397420638846143e+03
2.563113588999999925e-03 1.854875601158876407e+03
2.588744725000000167e-03 1.870454372853450650e+03
2.614632172000000161e-03 1.886133783135721387e+03
2.640778494000000070e-03 1.901913865785016469e+03
2.667186278999999962e-03 1.917794640539858392e+03
2.693858141999999796e-03 1.933776110045616178e+03
2.720796722999999865e-03 1.949858262703363835e+03
2.748004689999999917e-03 1.966041067175653097e+03
2.775484737000000028e-03 1.982324475642352354e+03
2.803239584000000173e-03 1.998708420748295111e+03
2.831271980000000209e-03 2.015192815806774661e+03
2.859584699999999889e-03 2.031777556020478414e+03
2.888180547000000157e-03 2.048462515225654442e+03
2.917062353000000104e-03 2.065247548537475723e+03
2.946232976000000021e-03 2.082132491332592508e+03
2.975695306000000068e-03 2.099117160470072577e+03
3.005452258999999869e-03 2.116201356529790246e+03
3.035506780999999796e-03 2.133384857707726951e+03
3.065861849000000097e-03 2.150667429990469373e+03
3.096520468000000040e-03 2.168048819015610661e+03
3.127485672000000078e-03 2.185528756176451225e+03
3.158760529000000095e-03 2.203106950482397679e+03
3.190348133999999867e-03 2.220783096698563440e+03
3.222251615999999902e-03 2.238556887555161666e+03
3.254474132000000162e-03 2.256428015782405964e+03
3.287018873000000039e-03 2.274396135447423603e+03
3.319889062000000099e-03 2.292460835500567100e+03
3.353087952999999916e-03 2.310621692682792855e+03
3.386618831999999805e-03 2.328878275595459399e+03
3.420485020999999935e-03 2.347230128421135305e+03
3.454689870999999926e-03 2.365676768888699371e+03
3.489236769000000123e-03 2.384217680133742306e+03
3.524129136999999863e-03 2.402852320873063945e+03
3.559370428000000093e-03 2.421580123369773901e+03
3.594964132999999874e-03 2.440400491398391750e+03
3.630913773999999879e-03 2.459312800244849313e+03
3.667222912000000189e-03 2.478316406880983777e+03
3.703895140999999887e-03 2.497410639790043206e+03
3.740934092000000079e-03 2.516594803036484336e+03
3.778343432999999984e-03 2.535868180335771740e+03
3.816126867999999981e-03 2.555230035054378277e+03
3.854288135999999875e-03 2.574679600035286967e+03
3.892831018000000171e-03 2.594216089807387561e+03
3.931759328000000372e-03 2.613838692445879587e+03
3.971076920999999822e-03 2.633546559397777855e+03
4.010787689999999878e-03 2.653338821761101826e+03
4.050895566999999572e-03 2.673214567900990005e+03
4.091404522999999953e-03 2.693172851589289621e+03
4.132318567999999741e-03 2.713212698109262419e+03
4.173641754000000093e-03 2.733333083906586126e+03
4.215378171000000278e-03 2.753532952868550638e+03
4.257531953000000258e-03 2.773811206149562167e+03
4.300107273000000271e-03 2.794166716415436440e+03
4.343108344999999960e-03 2.814598321738702452e+03
4.386539428999999650e-03 2.835104835773100604e+03
4.430404823000000381e-03 2.855685031474381958e+03
4.474708871000000407e-03 2.876337630925818758e+03
4.519455959999999980e-03 2.897061337896589976e+03
4.564650519999999614e-03 2.917854933482046363e+03
4.610297024999999646e-03 2.938717170288948182e+03
4.656399995000000229e-03 2.959646463130781740e+03
4.702963995000000036e-03 2.980640954144532316e+03
4.749993634999999728e-03 3.001699125295361227e+03
4.797493570999999783e-03 3.022820101576591242e+03
4.845468506999999619e-03 3.044002865538598599e+03
